# Blue curve: LED brightness = 5, Integration time = 50
# Red curve: LED brightness = 5, Integration time = 49 (if applicable)
# Channel, Intensity (blue line) [V], Intensity (red line, if applicable) [V]
0 0.32833990 0.17647059
1 0.32833990 0.17647059
2 0.32834270 0.17647059
3 0.32834830 0.17647059
4 0.32835654 0.17647059
5 0.32836743 0.17647059
6 0.32838082 0.19607843
7 0.32839670 0.17647059
8 0.32841508 0.19607843
9 0.32843595 0.19607843
10 0.32845932 0.19607843
11 0.32848518 0.19607843
12 0.32851368 0.21568627
13 0.32854498 0.19607843
14 0.32857893 0.21568627
15 0.32861567 0.19607843
16 0.32865535 0.21568627
17 0.32869814 0.19607843
18 0.32874386 0.19607843
19 0.32879253 0.19607843
20 0.32884429 0.19607843
21 0.32889915 0.19607843
22 0.32895709 0.19607843
23 0.32901813 0.19607843
24 0.32908241 0.19607843
25 0.32914978 0.19607843
26 0.32922024 0.19607843
27 0.32929379 0.19607843
28 0.32937042 0.21568627
29 0.32945013 0.19607843
30 0.32953293 0.21568627
31 0.32961882 0.21568627
32 0.32970793 0.21568627
33 0.32980012 0.21568627
34 0.32989540 0.21568627
35 0.32999375 0.21568627
36 0.33009532 0.21568627
37 0.33020012 0.21568627
38 0.33030799 0.21568627
39 0.33041909 0.21568627
40 0.33053325 0.21568627
41 0.33065063 0.21568627
42 0.33077123 0.21568627
43 0.33089504 0.21568627
44 0.33102222 0.23529412
45 0.33115275 0.21568627
46 0.33128665 0.23529412
47 0.33142391 0.21568627
48 0.33156452 0.23529412
49 0.33170848 0.23529412
50 0.33185565 0.23529412
51 0.33200616 0.23529412
52 0.33215987 0.25490196
53 0.33231692 0.23529412
54 0.33247716 0.23529412
55 0.33264074 0.23529412
56 0.33280766 0.23529412
57 0.33297777 0.23529412
58 0.33315105 0.23529412
59 0.33332766 0.23529412
60 0.33350775 0.23529412
61 0.33369131 0.23529412
62 0.33387820 0.23529412
63 0.33406855 0.25490196
64 0.33426222 0.27450980
65 0.33445935 0.23529412
66 0.33466009 0.25490196
67 0.33486444 0.25490196
68 0.33507240 0.25490196
69 0.33528396 0.25490196
70 0.33549896 0.25490196
71 0.33571741 0.25490196
72 0.33593915 0.25490196
73 0.33616432 0.25490196
74 0.33639293 0.27450980
75 0.33662497 0.25490196
76 0.33686043 0.27450980
77 0.33709932 0.25490196
78 0.33734163 0.27450980
79 0.33758735 0.25490196
80 0.33783649 0.27450980
81 0.33808948 0.27450980
82 0.33834619 0.27450980
83 0.33860659 0.27450980
84 0.33887054 0.27450980
85 0.33913819 0.27450980
86 0.33940938 0.27450980
87 0.33968425 0.27450980
88 0.33996280 0.27450980
89 0.34024518 0.27450980
90 0.34053154 0.27450980
91 0.34082172 0.27450980
92 0.34111586 0.27450980
93 0.34141382 0.27450980
94 0.34171558 0.29411765
95 0.34202114 0.27450980
96 0.34233035 0.29411765
97 0.34264335 0.29411765
98 0.34295999 0.29411765
99 0.34328041 0.29411765
100 0.34360445 0.29411765
101 0.34393227 0.29411765
102 0.34426401 0.29411765
103 0.34459951 0.29411765
104 0.34493891 0.29411765
105 0.34528207 0.29411765
106 0.34562913 0.29411765
107 0.34598008 0.29411765
108 0.34633492 0.29411765
109 0.34669363 0.29411765
110 0.34705638 0.29411765
111 0.34742330 0.29411765
112 0.34779438 0.29411765
113 0.34816963 0.29411765
114 0.34854918 0.29411765
115 0.34893289 0.29411765
116 0.34932058 0.29411765
117 0.34971227 0.29411765
118 0.35010793 0.29411765
119 0.35050742 0.29411765
120 0.35091072 0.31372549
121 0.35131784 0.29411765
122 0.35172876 0.31372549
123 0.35214363 0.29411765
124 0.35256229 0.31372549
125 0.35298489 0.29411765
126 0.35341142 0.31372549
127 0.35384202 0.31372549
128 0.35427654 0.31372549
129 0.35471513 0.29411765
130 0.35515776 0.29411765
131 0.35560445 0.29411765
132 0.35605517 0.29411765
133 0.35651009 0.29411765
134 0.35696902 0.29411765
135 0.35743198 0.29411765
136 0.35789910 0.29411765
137 0.35837023 0.29411765
138 0.35884506 0.29411765
139 0.35932357 0.29411765
140 0.35980561 0.27450980
141 0.36029118 0.29411765
142 0.36078026 0.29411765
143 0.36127285 0.29411765
144 0.36176878 0.29411765
145 0.36226821 0.29411765
146 0.36277097 0.29411765
147 0.36327691 0.29411765
148 0.36378602 0.29411765
149 0.36429828 0.29411765
150 0.36481384 0.29411765
151 0.36533270 0.29411765
152 0.36585485 0.29411765
153 0.36638043 0.29411765
154 0.36690957 0.29411765
155 0.36744213 0.29411765
156 0.36797810 0.29411765
157 0.36851746 0.29411765
158 0.36906021 0.29411765
159 0.36960619 0.29411765
160 0.37015539 0.29411765
161 0.37070750 0.27450980
162 0.37126251 0.29411765
163 0.37182057 0.29411765
164 0.37238150 0.29411765
165 0.37294516 0.29411765
166 0.37351154 0.31372549
167 0.37408062 0.29411765
168 0.37465256 0.31372549
169 0.37522733 0.31372549
170 0.37580509 0.31372549
171 0.37638581 0.31372549
172 0.37696951 0.31372549
173 0.37755616 0.31372549
174 0.37814590 0.31372549
175 0.37873874 0.31372549
176 0.37933495 0.33333333
177 0.37993454 0.31372549
178 0.38053765 0.33333333
179 0.38114426 0.31372549
180 0.38175436 0.33333333
181 0.38236796 0.31372549
182 0.38298503 0.33333333
183 0.38360526 0.33333333
184 0.38422895 0.33333333
185 0.38485594 0.33333333
186 0.38548652 0.35294118
187 0.38612068 0.33333333
188 0.38675826 0.35294118
189 0.38739925 0.35294118
190 0.38804379 0.35294118
191 0.38869187 0.35294118
192 0.38934348 0.37254902
193 0.38999861 0.35294118
194 0.39065725 0.35294118
195 0.39131955 0.35294118
196 0.39198533 0.35294118
197 0.39265445 0.35294118
198 0.39332718 0.37254902
199 0.39400368 0.35294118
200 0.39468392 0.37254902
201 0.39536791 0.37254902
202 0.39605548 0.37254902
203 0.39674661 0.37254902
204 0.39744130 0.37254902
205 0.39813954 0.37254902
206 0.39884132 0.39215686
207 0.39954662 0.39215686
208 0.40025544 0.39215686
209 0.40096791 0.39215686
210 0.40168402 0.41176471
211 0.40240377 0.41176471
212 0.40312714 0.41176471
213 0.40385412 0.41176471
214 0.40458470 0.41176471
215 0.40531886 0.41176471
216 0.40605661 0.41176471
217 0.40679792 0.41176471
218 0.40754293 0.41176471
219 0.40829164 0.41176471
220 0.40904403 0.41176471
221 0.40980024 0.41176471
222 0.41056041 0.43137255
223 0.41132453 0.43137255
224 0.41209244 0.43137255
225 0.41286428 0.43137255
226 0.41363972 0.43137255
227 0.41441892 0.43137255
228 0.41520171 0.43137255
229 0.41598791 0.43137255
230 0.41677754 0.45098039
231 0.41757056 0.45098039
232 0.41836681 0.45098039
233 0.41916645 0.45098039
234 0.41996929 0.45098039
235 0.42077549 0.45098039
236 0.42158502 0.43137255
237 0.42239804 0.43137255
238 0.42321451 0.45098039
239 0.42403444 0.43137255
240 0.42485781 0.45098039
241 0.42568475 0.45098039
242 0.42651541 0.45098039
243 0.42734963 0.45098039
244 0.42818738 0.45098039
245 0.42902866 0.45098039
246 0.42987345 0.45098039
247 0.43072159 0.45098039
248 0.43157292 0.45098039
249 0.43242742 0.45098039
250 0.43328508 0.45098039
251 0.43414573 0.43137255
252 0.43500936 0.47058824
253 0.43587597 0.45098039
254 0.43674537 0.47058824
255 0.43761756 0.47058824
256 0.43849238 0.50980392
257 0.43936981 0.49019608
258 0.44024969 0.49019608
259 0.44113200 0.49019608
260 0.44201658 0.50980392
261 0.44290341 0.50980392
262 0.44379249 0.52941176
263 0.44468364 0.52941176
264 0.44557700 0.52941176
265 0.44647242 0.52941176
266 0.44736987 0.54901961
267 0.44826949 0.54901961
268 0.44917127 0.54901961
269 0.45007534 0.54901961
270 0.45098155 0.54901961
271 0.45189002 0.54901961
272 0.45280075 0.56862745
273 0.45371387 0.54901961
274 0.45462936 0.56862745
275 0.45554722 0.56862745
276 0.45646728 0.56862745
277 0.45738952 0.56862745
278 0.45831408 0.56862745
279 0.45924094 0.56862745
280 0.46017010 0.54901961
281 0.46110153 0.54901961
282 0.46203523 0.54901961
283 0.46297117 0.54901961
284 0.46390935 0.54901961
285 0.46484975 0.54901961
286 0.46579251 0.54901961
287 0.46673760 0.54901961
288 0.46768518 0.54901961
289 0.46863537 0.54901961
290 0.46958801 0.54901961
291 0.47054324 0.52941176
292 0.47150088 0.54901961
293 0.47246123 0.52941176
294 0.47342398 0.52941176
295 0.47438924 0.52941176
296 0.47535718 0.54901961
297 0.47632776 0.52941176
298 0.47730112 0.52941176
299 0.47827710 0.52941176
300 0.47925584 0.52941176
301 0.48023731 0.52941176
302 0.48122151 0.52941176
303 0.48220842 0.50980392
304 0.48319786 0.52941176
305 0.48419014 0.50980392
306 0.48518524 0.52941176
307 0.48618298 0.50980392
308 0.48718320 0.52941176
309 0.48818618 0.50980392
310 0.48919177 0.52941176
311 0.49020010 0.50980392
312 0.49121100 0.52941176
313 0.49222430 0.50980392
314 0.49323999 0.52941176
315 0.49425789 0.50980392
316 0.49527816 0.52941176
317 0.49630077 0.50980392
318 0.49732570 0.52941176
319 0.49835294 0.52941176
320 0.49938232 0.54901961
321 0.50041383 0.52941176
322 0.50144760 0.52941176
323 0.50248346 0.50980392
324 0.50352140 0.50980392
325 0.50456141 0.50980392
326 0.50560346 0.50980392
327 0.50664739 0.50980392
328 0.50769333 0.50980392
329 0.50874112 0.50980392
330 0.50979074 0.50980392
331 0.51084233 0.50980392
332 0.51189587 0.50980392
333 0.51295134 0.50980392
334 0.51400872 0.50980392
335 0.51506801 0.50980392
336 0.51612903 0.52941176
337 0.51719192 0.50980392
338 0.51825651 0.52941176
339 0.51932248 0.50980392
340 0.52038996 0.52941176
341 0.52145880 0.52941176
342 0.52252912 0.52941176
343 0.52360075 0.52941176
344 0.52467368 0.52941176
345 0.52574790 0.52941176
346 0.52682338 0.52941176
347 0.52789996 0.52941176
348 0.52897762 0.52941176
349 0.53005620 0.50980392
350 0.53113567 0.52941176
351 0.53221602 0.50980392
352 0.53329724 0.52941176
353 0.53437930 0.50980392
354 0.53546220 0.50980392
355 0.53654576 0.50980392
356 0.53762981 0.52941176
357 0.53871434 0.50980392
358 0.53979918 0.50980392
359 0.54088416 0.50980392
360 0.54196897 0.52941176
361 0.54305343 0.50980392
362 0.54413737 0.50980392
363 0.54522049 0.52941176
364 0.54630261 0.52941176
365 0.54738340 0.52941176
366 0.54846272 0.52941176
367 0.54954022 0.52941176
368 0.55061575 0.52941176
369 0.55168929 0.52941176
370 0.55276083 0.52941176
371 0.55383034 0.52941176
372 0.55489781 0.52941176
373 0.55596338 0.52941176
374 0.55702718 0.52941176
375 0.55808949 0.50980392
376 0.55915030 0.52941176
377 0.56020975 0.50980392
378 0.56126797 0.52941176
379 0.56232509 0.50980392
380 0.56338109 0.52941176
381 0.56443597 0.50980392
382 0.56548971 0.50980392
383 0.56654228 0.50980392
384 0.56759367 0.52941176
385 0.56864388 0.50980392
386 0.56969287 0.52941176
387 0.57074063 0.50980392
388 0.57178716 0.50980392
389 0.57283227 0.50980392
390 0.57387611 0.50980392
391 0.57491851 0.49019608
392 0.57595945 0.49019608
393 0.57699892 0.49019608
394 0.57803675 0.49019608
395 0.57907292 0.49019608
396 0.58010741 0.49019608
397 0.58114022 0.49019608
398 0.58217132 0.49019608
399 0.58320055 0.49019608
400 0.58422805 0.49019608
401 0.58525364 0.49019608
402 0.58627731 0.49019608
403 0.58729889 0.49019608
404 0.58831838 0.49019608
405 0.58933574 0.49019608
406 0.59035112 0.49019608
407 0.59136435 0.49019608
408 0.59237557 0.49019608
409 0.59338476 0.50980392
410 0.59439191 0.50980392
411 0.59539684 0.50980392
412 0.59639970 0.52941176
413 0.59740046 0.50980392
414 0.59839912 0.52941176
415 0.59939566 0.52941176
416 0.60039006 0.52941176
417 0.60138215 0.52941176
418 0.60237208 0.52941176
419 0.60335983 0.52941176
420 0.60434552 0.52941176
421 0.60532916 0.52941176
422 0.60631086 0.52941176
423 0.60729048 0.52941176
424 0.60826813 0.52941176
425 0.60924351 0.52941176
426 0.61021676 0.52941176
427 0.61118785 0.52941176
428 0.61215692 0.54901961
429 0.61312381 0.54901961
430 0.61408881 0.54901961
431 0.61505174 0.54901961
432 0.61601290 0.54901961
433 0.61697227 0.54901961
434 0.61792999 0.54901961
435 0.61888559 0.54901961
436 0.61983935 0.54901961
437 0.62079126 0.54901961
438 0.62174147 0.54901961
439 0.62268994 0.54901961
440 0.62363668 0.54901961
441 0.62458166 0.54901961
442 0.62552517 0.54901961
443 0.62646705 0.54901961
444 0.62740759 0.56862745
445 0.62834676 0.54901961
446 0.62928486 0.56862745
447 0.63022173 0.56862745
448 0.63115764 0.58823529
449 0.63209259 0.56862745
450 0.63302672 0.56862745
451 0.63396000 0.56862745
452 0.63489257 0.58823529
453 0.63582443 0.56862745
454 0.63675570 0.58823529
455 0.63768638 0.58823529
456 0.63861644 0.58823529
457 0.63954588 0.56862745
458 0.64047453 0.58823529
459 0.64140237 0.58823529
460 0.64232940 0.58823529
461 0.64325543 0.58823529
462 0.64418032 0.58823529
463 0.64510389 0.58823529
464 0.64602598 0.58823529
465 0.64694657 0.58823529
466 0.64786580 0.60784314
467 0.64878321 0.60784314
468 0.64969877 0.60784314
469 0.65061218 0.60784314
470 0.65152327 0.60784314
471 0.65243202 0.60784314
472 0.65333842 0.60784314
473 0.65424230 0.60784314
474 0.65514365 0.62745098
475 0.65604216 0.62745098
476 0.65693780 0.62745098
477 0.65783027 0.62745098
478 0.65871955 0.62745098
479 0.65960548 0.62745098
480 0.66048789 0.62745098
481 0.66136661 0.62745098
482 0.66224148 0.62745098
483 0.66311234 0.62745098
484 0.66397917 0.62745098
485 0.66484166 0.62745098
486 0.66569964 0.64705882
487 0.66655280 0.64705882
488 0.66740082 0.64705882
489 0.66824338 0.64705882
490 0.66908033 0.64705882
491 0.66991149 0.64705882
492 0.67073686 0.64705882
493 0.67155612 0.64705882
494 0.67236926 0.64705882
495 0.67317596 0.64705882
496 0.67397635 0.66666667
497 0.67477014 0.66666667
498 0.67555745 0.66666667
499 0.67633827 0.66666667
500 0.67711275 0.66666667
501 0.67788102 0.66666667
502 0.67864321 0.66666667
503 0.67939948 0.64705882
504 0.68014996 0.66666667
505 0.68089478 0.66666667
506 0.68163410 0.66666667
507 0.68236819 0.66666667
508 0.68309736 0.66666667
509 0.68382174 0.66666667
510 0.68454177 0.66666667
511 0.68525759 0.66666667
512 0.68596935 0.68627451
513 0.68667718 0.66666667
514 0.68738138 0.66666667
515 0.68808193 0.66666667
516 0.68877898 0.66666667
517 0.68947266 0.64705882
518 0.69016296 0.66666667
519 0.69085019 0.66666667
520 0.69153431 0.66666667
521 0.69221564 0.66666667
522 0.69289415 0.66666667
523 0.69356999 0.66666667
524 0.69424315 0.66666667
525 0.69491361 0.66666667
526 0.69558152 0.66666667
527 0.69624718 0.66666667
528 0.69691071 0.68627451
529 0.69757241 0.66666667
530 0.69823228 0.68627451
531 0.69889030 0.68627451
532 0.69954677 0.68627451
533 0.70020167 0.68627451
534 0.70085529 0.68627451
535 0.70150764 0.68627451
536 0.70215869 0.66666667
537 0.70280844 0.66666667
538 0.70345702 0.66666667
539 0.70410443 0.66666667
540 0.70475066 0.68627451
541 0.70539570 0.68627451
542 0.70603939 0.68627451
543 0.70668156 0.68627451
544 0.70732221 0.70588235
545 0.70796117 0.70588235
546 0.70859844 0.68627451
547 0.70923385 0.68627451
548 0.70986739 0.70588235
549 0.71049891 0.70588235
550 0.71112839 0.70588235
551 0.71175567 0.70588235
552 0.71238060 0.72549020
553 0.71300331 0.70588235
554 0.71362349 0.72549020
555 0.71424113 0.70588235
556 0.71485622 0.70588235
557 0.71546876 0.70588235
558 0.71607857 0.70588235
559 0.71668566 0.68627451
560 0.71728987 0.68627451
561 0.71789147 0.68627451
562 0.71849048 0.68627451
563 0.71908656 0.68627451
564 0.71967973 0.68627451
565 0.72026995 0.68627451
566 0.72085709 0.70588235
567 0.72144112 0.70588235
568 0.72202204 0.70588235
569 0.72259983 0.70588235
570 0.72317450 0.70588235
571 0.72374602 0.70588235
572 0.72431455 0.72549020
573 0.72488008 0.72549020
574 0.72544259 0.74509804
575 0.72600207 0.74509804
576 0.72655853 0.76470588
577 0.72711179 0.76470588
578 0.72766186 0.78431373
579 0.72820871 0.78431373
580 0.72875250 0.78431373
581 0.72929321 0.78431373
582 0.72983085 0.80392157
583 0.73036524 0.80392157
584 0.73089638 0.82352941
585 0.73142441 0.84313725
586 0.73194933 0.84313725
587 0.73247113 0.84313725
588 0.73298979 0.86274510
589 0.73350531 0.86274510
590 0.73401784 0.84313725
591 0.73452721 0.84313725
592 0.73503358 0.86274510
593 0.73553707 0.86274510
594 0.73603783 0.86274510
595 0.73653587 0.86274510
596 0.73703101 0.86274510
597 0.73752341 0.86274510
598 0.73801304 0.88235294
599 0.73850007 0.88235294
600 0.73898433 0.86274510
601 0.73946580 0.88235294
602 0.73994465 0.88235294
603 0.74042085 0.88235294
604 0.74089455 0.90196078
605 0.74136575 0.90196078
606 0.74183428 0.90196078
607 0.74230029 0.94117647
608 0.74276393 0.94117647
609 0.74322503 0.94117647
610 0.74368375 0.94117647
611 0.74414006 0.94117647
612 0.74459398 0.94117647
613 0.74504548 0.94117647
614 0.74549441 0.94117647
615 0.74594091 0.94117647
616 0.74638499 0.96078431
617 0.74682662 0.96078431
618 0.74726551 0.96078431
619 0.74770164 0.96078431
620 0.74813471 0.98039216
621 0.74856486 0.98039216
622 0.74899178 0.98039216
623 0.74941547 0.98039216
624 0.74983576 0.98039216
625 0.75025280 0.98039216
626 0.75066644 0.98039216
627 0.75107682 0.96078431
628 0.75148393 0.96078431
629 0.75188807 0.98039216
630 0.75228939 0.98039216
631 0.75268817 0.98039216
632 0.75308457 1.00000000
633 0.75347888 1.00000000
634 0.75387125 1.00000000
635 0.75426182 1.00000000
636 0.75465073 1.00000000
637 0.75503829 1.00000000
638 0.75542449 1.01960784
639 0.75580947 1.01960784
640 0.75619337 1.01960784
641 0.75657620 1.00000000
642 0.75695794 1.00000000
643 0.75733875 1.00000000
644 0.75771861 1.00000000
645 0.75809752 1.00000000
646 0.75847547 0.98039216
647 0.75885261 0.98039216
648 0.75922894 0.98039216
649 0.75960459 0.96078431
650 0.75997957 0.96078431
651 0.76035386 0.96078431
652 0.76072747 0.98039216
653 0.76110053 0.96078431
654 0.76147289 0.96078431
655 0.76184469 0.94117647
656 0.76221579 0.94117647
657 0.76258647 0.90196078
658 0.76295688 0.90196078
659 0.76332686 0.88235294
660 0.76369671 0.88235294
661 0.76406643 0.86274510
662 0.76443616 0.86274510
663 0.76480589 0.86274510
664 0.76517577 0.84313725
665 0.76554564 0.86274510
666 0.76591565 0.88235294
667 0.76628595 0.86274510
668 0.76665637 0.88235294
669 0.76702707 0.88235294
670 0.76739818 0.90196078
671 0.76776955 0.90196078
672 0.76814118 0.90196078
673 0.76851321 0.92156863
674 0.76888563 0.92156863
675 0.76925829 0.92156863
676 0.76963134 0.94117647
677 0.77000461 0.94117647
678 0.77037825 0.94117647
679 0.77075211 0.92156863
680 0.77112618 0.92156863
681 0.77150045 0.92156863
682 0.77187492 0.92156863
683 0.77224973 0.92156863
684 0.77262488 0.94117647
685 0.77300036 0.94117647
686 0.77337616 0.94117647
687 0.77375214 0.94117647
688 0.77412843 0.96078431
689 0.77450518 0.96078431
690 0.77488223 0.98039216
691 0.77525942 0.98039216
692 0.77563676 0.98039216
693 0.77601408 0.98039216
694 0.77639137 1.00000000
695 0.77676864 1.00000000
696 0.77714572 1.03921569
697 0.77752275 1.01960784
698 0.77789960 1.03921569
699 0.77827623 1.03921569
700 0.77865251 1.03921569
701 0.77902842 1.01960784
702 0.77940396 1.01960784
703 0.77977882 1.03921569
704 0.78015330 1.05882353
705 0.78052708 1.01960784
706 0.78090032 1.01960784
707 0.78127285 1.01960784
708 0.78164468 1.01960784
709 0.78201579 1.01960784
710 0.78238603 1.01960784
711 0.78275539 1.00000000
712 0.78312386 1.01960784
713 0.78349145 1.00000000
714 0.78385815 1.01960784
715 0.78422379 1.01960784
716 0.78458838 1.01960784
717 0.78495190 1.01960784
718 0.78531436 1.05882353
719 0.78567559 1.03921569
720 0.78603574 1.05882353
721 0.78639481 1.03921569
722 0.78675293 1.03921569
723 0.78710981 1.01960784
724 0.78746529 1.01960784
725 0.78781936 1.01960784
726 0.78817201 1.01960784
727 0.78852324 1.00000000
728 0.78887305 1.00000000
729 0.78922127 1.00000000
730 0.78956791 1.00000000
731 0.78991295 1.00000000
732 0.79025640 1.00000000
733 0.79059839 1.00000000
734 0.79093908 1.00000000
735 0.79127861 1.00000000
736 0.79161697 1.00000000
737 0.79195431 0.98039216
738 0.79229047 1.00000000
739 0.79262561 0.98039216
740 0.79295986 1.01960784
741 0.79329322 1.00000000
742 0.79362584 1.00000000
743 0.79395771 1.00000000
744 0.79428882 1.00000000
745 0.79461918 0.96078431
746 0.79494877 0.96078431
747 0.79527775 0.94117647
748 0.79560626 0.96078431
749 0.79593428 0.94117647
750 0.79626198 0.94117647
751 0.79658919 0.92156863
752 0.79691606 0.92156863
753 0.79724244 0.90196078
754 0.79756846 0.90196078
755 0.79789413 0.88235294
756 0.79821929 0.88235294
757 0.79854393 0.86274510
758 0.79886804 0.86274510
759 0.79919148 0.82352941
760 0.79951409 0.80392157
761 0.79983570 0.76470588
762 0.80015647 0.76470588
763 0.80047624 0.72549020
764 0.80079516 0.70588235
