# Blue curve: LED brightness = 5, Integration time = 51
# Red curve: LED brightness = 5, Integration time = 50 (if applicable)
# Channel, Intensity (blue line) [V], Intensity (red line, if applicable) [V]
0 0.45915715 0.31372549
1 0.45915715 0.31372549
2 0.45915808 0.33333333
3 0.45915995 0.33333333
4 0.45916289 0.35294118
5 0.45916677 0.33333333
6 0.45917174 0.35294118
7 0.45917763 0.33333333
8 0.45918461 0.35294118
9 0.45919252 0.35294118
10 0.45920136 0.37254902
11 0.45921113 0.37254902
12 0.45922199 0.37254902
13 0.45923378 0.37254902
14 0.45924665 0.39215686
15 0.45926060 0.39215686
16 0.45927563 0.41176471
17 0.45929190 0.41176471
18 0.45930925 0.41176471
19 0.45932767 0.41176471
20 0.45934718 0.41176471
21 0.45936777 0.41176471
22 0.45938944 0.41176471
23 0.45941219 0.39215686
24 0.45943602 0.39215686
25 0.45946093 0.39215686
26 0.45948707 0.39215686
27 0.45951428 0.37254902
28 0.45954273 0.39215686
29 0.45957225 0.37254902
30 0.45960300 0.37254902
31 0.45963468 0.37254902
32 0.45966743 0.39215686
33 0.45970111 0.37254902
34 0.45973586 0.39215686
35 0.45977169 0.39215686
36 0.45980859 0.39215686
37 0.45984656 0.39215686
38 0.45988546 0.37254902
39 0.45992527 0.39215686
40 0.45996616 0.39215686
41 0.46000812 0.39215686
42 0.46005115 0.39215686
43 0.46009525 0.39215686
44 0.46014042 0.39215686
45 0.46018665 0.39215686
46 0.46023396 0.41176471
47 0.46028233 0.41176471
48 0.46033176 0.43137255
49 0.46038242 0.41176471
50 0.46043444 0.43137255
51 0.46048767 0.43137255
52 0.46054212 0.43137255
53 0.46059778 0.43137255
54 0.46065451 0.43137255
55 0.46071244 0.41176471
56 0.46077159 0.43137255
57 0.46083164 0.41176471
58 0.46089290 0.41176471
59 0.46095522 0.41176471
60 0.46101874 0.41176471
61 0.46108332 0.43137255
62 0.46114926 0.43137255
63 0.46121655 0.43137255
64 0.46128519 0.45098039
65 0.46135519 0.43137255
66 0.46142669 0.45098039
67 0.46149985 0.45098039
68 0.46157450 0.45098039
69 0.46165066 0.43137255
70 0.46172846 0.45098039
71 0.46180791 0.45098039
72 0.46188901 0.45098039
73 0.46197191 0.45098039
74 0.46205660 0.45098039
75 0.46214309 0.45098039
76 0.46223137 0.45098039
77 0.46232160 0.45098039
78 0.46241361 0.47058824
79 0.46250757 0.45098039
80 0.46260346 0.47058824
81 0.46270160 0.45098039
82 0.46280182 0.47058824
83 0.46290412 0.47058824
84 0.46300851 0.47058824
85 0.46311529 0.47058824
86 0.46322430 0.49019608
87 0.46333569 0.47058824
88 0.46344930 0.47058824
89 0.46356545 0.47058824
90 0.46368382 0.47058824
91 0.46380457 0.47058824
92 0.46392768 0.47058824
93 0.46405317 0.47058824
94 0.46418118 0.49019608
95 0.46431171 0.47058824
96 0.46444475 0.49019608
97 0.46458015 0.47058824
98 0.46471792 0.49019608
99 0.46485804 0.49019608
100 0.46500052 0.49019608
101 0.46514535 0.49019608
102 0.46529254 0.49019608
103 0.46544207 0.49019608
104 0.46559395 0.49019608
105 0.46574818 0.49019608
106 0.46590475 0.50980392
107 0.46606381 0.49019608
108 0.46622536 0.50980392
109 0.46638939 0.49019608
110 0.46655591 0.50980392
111 0.46672476 0.50980392
112 0.46689594 0.50980392
113 0.46706959 0.49019608
114 0.46724587 0.50980392
115 0.46742447 0.49019608
116 0.46760523 0.50980392
117 0.46778815 0.50980392
118 0.46797324 0.50980392
119 0.46816048 0.50980392
120 0.46834972 0.50980392
121 0.46854097 0.50980392
122 0.46873421 0.50980392
123 0.46892959 0.50980392
124 0.46912712 0.50980392
125 0.46932679 0.50980392
126 0.46952875 0.50980392
127 0.46973298 0.52941176
128 0.46993966 0.54901961
129 0.47014891 0.50980392
130 0.47036059 0.50980392
131 0.47057499 0.50980392
132 0.47079196 0.50980392
133 0.47101150 0.50980392
134 0.47123360 0.50980392
135 0.47145827 0.49019608
136 0.47168549 0.49019608
137 0.47191541 0.47058824
138 0.47214789 0.49019608
139 0.47238306 0.47058824
140 0.47262093 0.47058824
141 0.47286148 0.47058824
142 0.47310457 0.47058824
143 0.47335020 0.47058824
144 0.47359835 0.47058824
145 0.47384917 0.47058824
146 0.47410252 0.47058824
147 0.47435823 0.47058824
148 0.47461630 0.47058824
149 0.47487672 0.47058824
150 0.47513966 0.49019608
151 0.47540524 0.49019608
152 0.47567347 0.49019608
153 0.47594434 0.49019608
154 0.47621800 0.50980392
155 0.47649445 0.49019608
156 0.47677368 0.49019608
157 0.47705569 0.49019608
158 0.47734047 0.50980392
159 0.47762817 0.50980392
160 0.47791863 0.50980392
161 0.47821201 0.50980392
162 0.47850814 0.50980392
163 0.47880702 0.50980392
164 0.47910864 0.50980392
165 0.47941301 0.50980392
166 0.47972027 0.52941176
167 0.48003025 0.50980392
168 0.48034312 0.52941176
169 0.48065886 0.50980392
170 0.48097746 0.52941176
171 0.48129893 0.50980392
172 0.48162326 0.54901961
173 0.48195075 0.52941176
174 0.48228153 0.52941176
175 0.48261546 0.52941176
176 0.48295269 0.52941176
177 0.48329320 0.52941176
178 0.48363714 0.52941176
179 0.48398421 0.50980392
180 0.48433470 0.52941176
181 0.48468861 0.50980392
182 0.48504608 0.50980392
183 0.48540711 0.50980392
184 0.48577168 0.50980392
185 0.48613981 0.50980392
186 0.48651147 0.52941176
187 0.48688667 0.52941176
188 0.48726539 0.52941176
189 0.48764764 0.52941176
190 0.48803355 0.52941176
191 0.48842313 0.54901961
192 0.48881637 0.54901961
193 0.48921325 0.52941176
194 0.48961393 0.54901961
195 0.49001839 0.54901961
196 0.49042679 0.54901961
197 0.49083897 0.54901961
198 0.49125507 0.54901961
199 0.49167493 0.54901961
200 0.49209855 0.54901961
201 0.49252576 0.52941176
202 0.49295642 0.54901961
203 0.49339052 0.54901961
204 0.49382804 0.54901961
205 0.49426898 0.54901961
206 0.49471334 0.54901961
207 0.49516110 0.54901961
208 0.49561212 0.54901961
209 0.49606668 0.54901961
210 0.49652462 0.54901961
211 0.49698580 0.54901961
212 0.49745019 0.54901961
213 0.49791780 0.54901961
214 0.49838862 0.54901961
215 0.49886264 0.54901961
216 0.49933970 0.54901961
217 0.49981994 0.54901961
218 0.50030336 0.56862745
219 0.50079011 0.54901961
220 0.50128001 0.56862745
221 0.50177307 0.54901961
222 0.50226928 0.54901961
223 0.50276833 0.54901961
224 0.50327020 0.54901961
225 0.50377490 0.54901961
226 0.50428226 0.54901961
227 0.50479228 0.52941176
228 0.50530464 0.52941176
229 0.50581934 0.52941176
230 0.50633622 0.52941176
231 0.50685512 0.52941176
232 0.50737587 0.52941176
233 0.50789848 0.50980392
234 0.50842278 0.50980392
235 0.50894891 0.50980392
236 0.50947673 0.50980392
237 0.51000621 0.50980392
238 0.51053720 0.52941176
239 0.51106968 0.52941176
240 0.51160382 0.52941176
241 0.51213959 0.52941176
242 0.51267698 0.52941176
243 0.51321584 0.52941176
244 0.51375617 0.52941176
245 0.51429764 0.52941176
246 0.51484025 0.52941176
247 0.51538384 0.52941176
248 0.51592855 0.52941176
249 0.51647438 0.52941176
250 0.51702117 0.52941176
251 0.51756921 0.52941176
252 0.51811833 0.52941176
253 0.51866839 0.52941176
254 0.51921951 0.54901961
255 0.51977170 0.54901961
256 0.52032495 0.56862745
257 0.52087925 0.54901961
258 0.52143473 0.54901961
259 0.52199140 0.54901961
260 0.52254924 0.56862745
261 0.52310839 0.56862745
262 0.52366870 0.56862745
263 0.52423031 0.56862745
264 0.52479321 0.56862745
265 0.52535754 0.56862745
266 0.52592314 0.56862745
267 0.52649000 0.56862745
268 0.52705827 0.56862745
269 0.52762779 0.56862745
270 0.52819854 0.56862745
271 0.52877083 0.56862745
272 0.52934448 0.56862745
273 0.52991980 0.56862745
274 0.53049677 0.58823529
275 0.53107509 0.56862745
276 0.53165489 0.58823529
277 0.53223617 0.58823529
278 0.53281908 0.58823529
279 0.53340344 0.58823529
280 0.53398940 0.58823529
281 0.53457695 0.58823529
282 0.53516609 0.58823529
283 0.53575665 0.60784314
284 0.53634893 0.60784314
285 0.53694291 0.60784314
286 0.53753859 0.60784314
287 0.53813596 0.60784314
288 0.53873502 0.62745098
289 0.53933559 0.60784314
290 0.53993782 0.60784314
291 0.54054170 0.60784314
292 0.54114738 0.60784314
293 0.54175484 0.60784314
294 0.54236423 0.60784314
295 0.54297553 0.60784314
296 0.54358875 0.62745098
297 0.54420401 0.60784314
298 0.54482131 0.62745098
299 0.54544064 0.60784314
300 0.54606214 0.62745098
301 0.54668581 0.62745098
302 0.54731163 0.62745098
303 0.54793959 0.62745098
304 0.54856984 0.62745098
305 0.54920236 0.64705882
306 0.54983744 0.64705882
307 0.55047494 0.64705882
308 0.55111483 0.64705882
309 0.55175726 0.64705882
310 0.55240206 0.64705882
311 0.55304939 0.62745098
312 0.55369922 0.64705882
313 0.55435155 0.62745098
314 0.55500652 0.64705882
315 0.55566412 0.62745098
316 0.55632448 0.64705882
317 0.55698761 0.62745098
318 0.55765364 0.62745098
319 0.55832226 0.62745098
320 0.55899376 0.64705882
321 0.55966797 0.62745098
322 0.56034505 0.62745098
323 0.56102497 0.60784314
324 0.56170789 0.62745098
325 0.56239378 0.60784314
326 0.56308249 0.60784314
327 0.56377416 0.60784314
328 0.56446878 0.62745098
329 0.56516664 0.60784314
330 0.56586757 0.62745098
331 0.56657157 0.60784314
332 0.56727878 0.60784314
333 0.56798933 0.60784314
334 0.56870307 0.60784314
335 0.56941983 0.58823529
336 0.57013975 0.60784314
337 0.57086298 0.58823529
338 0.57158934 0.58823529
339 0.57231884 0.58823529
340 0.57305145 0.58823529
341 0.57378718 0.58823529
342 0.57452599 0.58823529
343 0.57526774 0.56862745
344 0.57601256 0.56862745
345 0.57676045 0.56862745
346 0.57751138 0.56862745
347 0.57826535 0.56862745
348 0.57902234 0.56862745
349 0.57978236 0.58823529
350 0.58054537 0.58823529
351 0.58131153 0.56862745
352 0.58208066 0.56862745
353 0.58285261 0.56862745
354 0.58362752 0.56862745
355 0.58440522 0.54901961
356 0.58518540 0.54901961
357 0.58596789 0.54901961
358 0.58675269 0.54901961
359 0.58753962 0.54901961
360 0.58832854 0.54901961
361 0.58911926 0.54901961
362 0.58991179 0.54901961
363 0.59070595 0.54901961
364 0.59150143 0.54901961
365 0.59229793 0.54901961
366 0.59309511 0.56862745
367 0.59389252 0.54901961
368 0.59468985 0.56862745
369 0.59548693 0.54901961
370 0.59628359 0.56862745
371 0.59707952 0.56862745
372 0.59787486 0.58823529
373 0.59866991 0.56862745
374 0.59946449 0.58823529
375 0.60025889 0.56862745
376 0.60105326 0.58823529
377 0.60184759 0.56862745
378 0.60264201 0.56862745
379 0.60343651 0.56862745
380 0.60423137 0.56862745
381 0.60502660 0.56862745
382 0.60582232 0.56862745
383 0.60661868 0.56862745
384 0.60741567 0.58823529
385 0.60821311 0.56862745
386 0.60901115 0.56862745
387 0.60980963 0.56862745
388 0.61060838 0.56862745
389 0.61140739 0.54901961
390 0.61220650 0.56862745
391 0.61300553 0.54901961
392 0.61380464 0.56862745
393 0.61460366 0.54901961
394 0.61540243 0.56862745
395 0.61620107 0.56862745
396 0.61699959 0.56862745
397 0.61779797 0.54901961
398 0.61859619 0.56862745
399 0.61939425 0.54901961
400 0.62019182 0.54901961
401 0.62098875 0.54901961
402 0.62178503 0.54901961
403 0.62258064 0.54901961
404 0.62337572 0.54901961
405 0.62417010 0.54901961
406 0.62496378 0.54901961
407 0.62575659 0.54901961
408 0.62654852 0.54901961
409 0.62733940 0.54901961
410 0.62812938 0.54901961
411 0.62891845 0.54901961
412 0.62970673 0.54901961
413 0.63049437 0.54901961
414 0.63128152 0.54901961
415 0.63206815 0.54901961
416 0.63285426 0.56862745
417 0.63363998 0.56862745
418 0.63442530 0.56862745
419 0.63521021 0.56862745
420 0.63599500 0.56862745
421 0.63677951 0.54901961
422 0.63756373 0.54901961
423 0.63834749 0.54901961
424 0.63913077 0.54901961
425 0.63991342 0.54901961
426 0.64069528 0.54901961
427 0.64147618 0.54901961
428 0.64225610 0.54901961
429 0.64303489 0.54901961
430 0.64381283 0.54901961
431 0.64458961 0.54901961
432 0.64536538 0.54901961
433 0.64614011 0.54901961
434 0.64691425 0.54901961
435 0.64768748 0.54901961
436 0.64845995 0.54901961
437 0.64923164 0.54901961
438 0.65000270 0.54901961
439 0.65077340 0.54901961
440 0.65154420 0.56862745
441 0.65231524 0.54901961
442 0.65308664 0.56862745
443 0.65385856 0.54901961
444 0.65463098 0.54901961
445 0.65540388 0.54901961
446 0.65617742 0.54901961
447 0.65695157 0.54901961
448 0.65772662 0.56862745
449 0.65850242 0.54901961
450 0.65927894 0.54901961
451 0.66005619 0.54901961
452 0.66083444 0.54901961
453 0.66161354 0.54901961
454 0.66239363 0.54901961
455 0.66317439 0.52941176
456 0.66395595 0.52941176
457 0.66473816 0.52941176
458 0.66552101 0.54901961
459 0.66630433 0.54901961
460 0.66708811 0.56862745
461 0.66787218 0.56862745
462 0.66865654 0.56862745
463 0.66944102 0.56862745
464 0.67022545 0.58823529
465 0.67100968 0.58823529
466 0.67179354 0.58823529
467 0.67257672 0.56862745
468 0.67335889 0.58823529
469 0.67413976 0.58823529
470 0.67491930 0.58823529
471 0.67569705 0.58823529
472 0.67647284 0.58823529
473 0.67724652 0.58823529
474 0.67801807 0.60784314
475 0.67878733 0.60784314
476 0.67955444 0.60784314
477 0.68031923 0.60784314
478 0.68108185 0.60784314
479 0.68184212 0.62745098
480 0.68260005 0.62745098
481 0.68335531 0.62745098
482 0.68410774 0.64705882
483 0.68485719 0.64705882
484 0.68560333 0.64705882
485 0.68634600 0.64705882
486 0.68708489 0.66666667
487 0.68781969 0.66666667
488 0.68855023 0.66666667
489 0.68927619 0.64705882
490 0.68999743 0.66666667
491 0.69071377 0.66666667
492 0.69142505 0.66666667
493 0.69213112 0.66666667
494 0.69283210 0.66666667
495 0.69352769 0.66666667
496 0.69421803 0.68627451
497 0.69490310 0.66666667
498 0.69558290 0.68627451
499 0.69625742 0.68627451
500 0.69692664 0.68627451
501 0.69759071 0.68627451
502 0.69824962 0.68627451
503 0.69890335 0.68627451
504 0.69955205 0.68627451
505 0.70019586 0.70588235
506 0.70083507 0.70588235
507 0.70146982 0.70588235
508 0.70210040 0.70588235
509 0.70272712 0.68627451
510 0.70335025 0.70588235
511 0.70397025 0.68627451
512 0.70458725 0.70588235
513 0.70520140 0.66666667
514 0.70581284 0.68627451
515 0.70642186 0.66666667
516 0.70702846 0.68627451
517 0.70763277 0.68627451
518 0.70823478 0.68627451
519 0.70883449 0.68627451
520 0.70943189 0.68627451
521 0.71002696 0.68627451
522 0.71061985 0.70588235
523 0.71121071 0.70588235
524 0.71179967 0.70588235
525 0.71238702 0.72549020
526 0.71297291 0.72549020
527 0.71355764 0.74509804
528 0.71414149 0.76470588
529 0.71472476 0.76470588
530 0.71530790 0.78431373
531 0.71589074 0.78431373
532 0.71647372 0.78431373
533 0.71705685 0.76470588
534 0.71764010 0.78431373
535 0.71822363 0.78431373
536 0.71880742 0.78431373
537 0.71939147 0.78431373
538 0.71997591 0.80392157
539 0.72056074 0.78431373
540 0.72114580 0.80392157
541 0.72173107 0.78431373
542 0.72231671 0.80392157
543 0.72290254 0.78431373
544 0.72348841 0.78431373
545 0.72407432 0.78431373
546 0.72466025 0.80392157
547 0.72524634 0.78431373
548 0.72583244 0.80392157
549 0.72641853 0.82352941
550 0.72700445 0.84313725
551 0.72759035 0.84313725
552 0.72817637 0.86274510
553 0.72876220 0.86274510
554 0.72934782 0.88235294
555 0.72993294 0.86274510
556 0.73051722 0.86274510
557 0.73110038 0.86274510
558 0.73168223 0.86274510
559 0.73226278 0.86274510
560 0.73284202 0.86274510
561 0.73342009 0.86274510
562 0.73399667 0.88235294
563 0.73457176 0.88235294
564 0.73514520 0.88235294
565 0.73571713 0.88235294
566 0.73628754 0.88235294
567 0.73685627 0.88235294
568 0.73742347 0.90196078
569 0.73798912 0.88235294
570 0.73855352 0.90196078
571 0.73911666 0.90196078
572 0.73967869 0.92156863
573 0.74023974 0.92156863
574 0.74079995 0.92156863
575 0.74135918 0.94117647
576 0.74191740 0.94117647
577 0.74247446 0.92156863
578 0.74303051 0.92156863
579 0.74358523 0.92156863
580 0.74413876 0.94117647
581 0.74469109 0.94117647
582 0.74524223 0.94117647
583 0.74579184 0.94117647
584 0.74633994 0.96078431
585 0.74688635 0.96078431
586 0.74743123 0.96078431
587 0.74797456 0.96078431
588 0.74851648 0.98039216
589 0.74905714 0.98039216
590 0.74959653 0.98039216
591 0.75013479 0.98039216
592 0.75067191 1.00000000
593 0.75120804 1.00000000
594 0.75174332 1.01960784
595 0.75227760 1.01960784
596 0.75281115 1.01960784
597 0.75334399 1.01960784
598 0.75387609 1.01960784
599 0.75440745 0.98039216
600 0.75493806 0.98039216
601 0.75546777 0.98039216
602 0.75599655 0.98039216
603 0.75652457 0.98039216
604 0.75705165 0.98039216
605 0.75757795 0.98039216
606 0.75810345 0.98039216
607 0.75862814 0.98039216
608 0.75915202 0.98039216
609 0.75967523 0.96078431
610 0.76019761 0.98039216
611 0.76071930 0.96078431
612 0.76124015 0.98039216
613 0.76176014 0.96078431
614 0.76227912 0.98039216
615 0.76279708 0.98039216
616 0.76331371 1.00000000
617 0.76382900 0.98039216
618 0.76434294 0.98039216
619 0.76485553 0.96078431
620 0.76536660 0.96078431
621 0.76587600 0.94117647
622 0.76638372 0.92156863
623 0.76688960 0.90196078
624 0.76739332 0.90196078
625 0.76789520 0.88235294
626 0.76839520 0.88235294
627 0.76889364 0.86274510
628 0.76939066 0.86274510
629 0.76988669 0.82352941
630 0.77038204 0.82352941
631 0.77087685 0.80392157
632 0.77137127 0.80392157
633 0.77186558 0.80392157
634 0.77235977 0.80392157
635 0.77285401 0.78431373
636 0.77334841 0.78431373
637 0.77384314 0.78431373
638 0.77433819 0.80392157
639 0.77483368 0.78431373
640 0.77532978 0.80392157
641 0.77582662 0.76470588
642 0.77632420 0.76470588
643 0.77682250 0.74509804
644 0.77732168 0.72549020
645 0.77782157 0.72549020
646 0.77832201 0.74509804
647 0.77882315 0.74509804
648 0.77932498 0.74509804
649 0.77982749 0.74509804
650 0.78033067 0.76470588
651 0.78083452 0.76470588
652 0.78133888 0.78431373
653 0.78184389 0.78431373
654 0.78234954 0.78431373
655 0.78285583 0.78431373
656 0.78336259 0.78431373
657 0.78386997 0.78431373
658 0.78437811 0.78431373
659 0.78488686 0.78431373
660 0.78539606 0.80392157
661 0.78590584 0.80392157
662 0.78641635 0.80392157
663 0.78692759 0.80392157
664 0.78743939 0.78431373
665 0.78795174 0.80392157
666 0.78846480 0.78431373
667 0.78897825 0.76470588
668 0.78949192 0.78431373
669 0.79000582 0.78431373
670 0.79051994 0.78431373
671 0.79103426 0.80392157
672 0.79154878 0.80392157
673 0.79206334 0.80392157
674 0.79257793 0.80392157
675 0.79309269 0.80392157
676 0.79360747 0.82352941
677 0.79412226 0.82352941
678 0.79463690 0.82352941
679 0.79515138 0.82352941
680 0.79566554 0.82352941
681 0.79617937 0.82352941
682 0.79669272 0.84313725
683 0.79720558 0.84313725
684 0.79771808 0.84313725
685 0.79823023 0.84313725
686 0.79874201 0.86274510
687 0.79925342 0.84313725
688 0.79976445 0.84313725
689 0.80027524 0.86274510
690 0.80078548 0.86274510
691 0.80129501 0.88235294
692 0.80180368 0.88235294
693 0.80231147 0.90196078
694 0.80281838 0.90196078
695 0.80332439 0.92156863
696 0.80382952 0.92156863
697 0.80433358 0.92156863
698 0.80483658 0.94117647
699 0.80533835 0.94117647
700 0.80583890 0.96078431
701 0.80633820 0.96078431
702 0.80683611 0.96078431
703 0.80733261 0.98039216
704 0.80782755 1.01960784
705 0.80832091 1.00000000
706 0.80881255 1.01960784
707 0.80930275 1.01960784
708 0.80979150 1.03921569
709 0.81027880 1.03921569
710 0.81076465 1.03921569
711 0.81124903 1.03921569
712 0.81173163 1.03921569
713 0.81221245 1.03921569
714 0.81269163 1.05882353
715 0.81316901 1.05882353
716 0.81364458 1.07843137
717 0.81411834 1.07843137
718 0.81459028 1.09803922
719 0.81506025 1.09803922
720 0.81552807 1.09803922
721 0.81599390 1.09803922
722 0.81645774 1.11764706
723 0.81691941 1.11764706
724 0.81737892 1.13725490
725 0.81783595 1.11764706
726 0.81829065 1.13725490
727 0.81874301 1.15686275
728 0.81919288 1.15686275
729 0.81964054 1.15686275
730 0.82008600 1.17647059
731 0.82052909 1.19607843
732 0.82096981 1.17647059
733 0.82140815 1.17647059
734 0.82184410 1.19607843
735 0.82227766 1.19607843
736 0.82270882 1.19607843
737 0.82313742 1.19607843
738 0.82356331 1.21568627
739 0.82398647 1.19607843
740 0.82440691 1.21568627
741 0.82482461 1.19607843
742 0.82523942 1.21568627
743 0.82565133 1.19607843
744 0.82606034 1.21568627
745 0.82646628 1.19607843
746 0.82686900 1.21568627
747 0.82726865 1.19607843
748 0.82766506 1.21568627
749 0.82805823 1.21568627
750 0.82844832 1.21568627
751 0.82883560 1.19607843
752 0.82922008 1.21568627
753 0.82960190 1.19607843
754 0.82998106 1.17647059
755 0.83035740 1.15686275
756 0.83073076 1.15686275
757 0.83110114 1.13725490
758 0.83146853 1.11764706
759 0.83183292 1.09803922
760 0.83219446 1.07843137
761 0.83255300 1.05882353
762 0.83290868 1.01960784
763 0.83326149 0.98039216
764 0.83361158 0.94117647
