# Blue curve: LED brightness = 5, Integration time = 50
# Red curve: LED brightness = 5, Integration time = 49 (if applicable)
# Channel, Intensity (blue line) [V], Intensity (red line, if applicable) [V]
0 0.27705529 0.17647059
1 0.27705529 0.15686275
2 0.27705767 0.17647059
3 0.27706243 0.15686275
4 0.27706942 0.17647059
5 0.27707878 0.17647059
6 0.27709038 0.17647059
7 0.27710420 0.17647059
8 0.27712025 0.19607843
9 0.27713868 0.19607843
10 0.27715949 0.19607843
11 0.27718283 0.19607843
12 0.27720870 0.19607843
13 0.27723709 0.19607843
14 0.27726817 0.21568627
15 0.27730192 0.19607843
16 0.27733820 0.21568627
17 0.27737731 0.19607843
18 0.27741910 0.19607843
19 0.27746341 0.19607843
20 0.27751040 0.19607843
21 0.27755991 0.19607843
22 0.27761210 0.19607843
23 0.27766681 0.19607843
24 0.27772419 0.19607843
25 0.27778409 0.19607843
26 0.27784667 0.19607843
27 0.27791191 0.19607843
28 0.27797982 0.19607843
29 0.27805040 0.19607843
30 0.27812365 0.19607843
31 0.27819971 0.19607843
32 0.27827844 0.19607843
33 0.27835983 0.19607843
34 0.27844404 0.19607843
35 0.27853090 0.19607843
36 0.27862058 0.19607843
37 0.27871291 0.19607843
38 0.27880790 0.19607843
39 0.27890555 0.19607843
40 0.27900585 0.19607843
41 0.27910880 0.19607843
42 0.27921425 0.19607843
43 0.27932235 0.19607843
44 0.27943295 0.19607843
45 0.27954619 0.19607843
46 0.27966207 0.21568627
47 0.27978060 0.19607843
48 0.27990176 0.21568627
49 0.28002557 0.21568627
50 0.28015216 0.21568627
51 0.28028139 0.21568627
52 0.28041325 0.21568627
53 0.28054789 0.21568627
54 0.28068516 0.21568627
55 0.28082520 0.19607843
56 0.28096787 0.21568627
57 0.28111317 0.19607843
58 0.28126108 0.19607843
59 0.28141161 0.19607843
60 0.28156475 0.19607843
61 0.28172051 0.19607843
62 0.28187888 0.19607843
63 0.28203985 0.21568627
64 0.28220343 0.23529412
65 0.28236961 0.21568627
66 0.28253840 0.21568627
67 0.28270962 0.21568627
68 0.28288345 0.21568627
69 0.28305971 0.21568627
70 0.28323857 0.19607843
71 0.28342001 0.21568627
72 0.28360404 0.21568627
73 0.28379064 0.21568627
74 0.28397952 0.21568627
75 0.28417098 0.21568627
76 0.28436501 0.23529412
77 0.28456161 0.21568627
78 0.28476078 0.21568627
79 0.28496251 0.21568627
80 0.28516680 0.21568627
81 0.28537364 0.21568627
82 0.28558305 0.21568627
83 0.28579485 0.21568627
84 0.28600904 0.21568627
85 0.28622563 0.21568627
86 0.28644461 0.23529412
87 0.28666597 0.21568627
88 0.28688972 0.21568627
89 0.28711585 0.21568627
90 0.28734435 0.23529412
91 0.28757523 0.21568627
92 0.28780847 0.21568627
93 0.28804408 0.23529412
94 0.28828205 0.23529412
95 0.28852238 0.23529412
96 0.28876506 0.23529412
97 0.28901009 0.21568627
98 0.28925762 0.23529412
99 0.28950749 0.21568627
100 0.28975986 0.21568627
101 0.29001471 0.21568627
102 0.29027204 0.21568627
103 0.29053185 0.21568627
104 0.29079413 0.21568627
105 0.29105889 0.21568627
106 0.29132611 0.21568627
107 0.29159564 0.21568627
108 0.29186748 0.21568627
109 0.29214162 0.21568627
110 0.29241806 0.21568627
111 0.29269679 0.21568627
112 0.29297797 0.21568627
113 0.29326158 0.21568627
114 0.29354762 0.23529412
115 0.29383594 0.21568627
116 0.29412653 0.23529412
117 0.29441939 0.23529412
118 0.29471451 0.23529412
119 0.29501189 0.23529412
120 0.29531153 0.23529412
121 0.29561341 0.21568627
122 0.29591769 0.23529412
123 0.29622437 0.23529412
124 0.29653358 0.23529412
125 0.29684532 0.23529412
126 0.29715959 0.23529412
127 0.29747638 0.23529412
128 0.29779585 0.25490196
129 0.29811782 0.23529412
130 0.29844246 0.23529412
131 0.29876975 0.23529412
132 0.29909969 0.23529412
133 0.29943228 0.23529412
134 0.29976766 0.23529412
135 0.30010582 0.23529412
136 0.30044676 0.23529412
137 0.30079048 0.23529412
138 0.30113696 0.23529412
139 0.30148622 0.23529412
140 0.30183823 0.23529412
141 0.30219299 0.23529412
142 0.30255065 0.23529412
143 0.30291121 0.23529412
144 0.30327465 0.23529412
145 0.30364128 0.23529412
146 0.30401094 0.23529412
147 0.30438362 0.23529412
148 0.30475917 0.25490196
149 0.30513772 0.23529412
150 0.30551913 0.25490196
151 0.30590354 0.25490196
152 0.30629094 0.25490196
153 0.30668149 0.25490196
154 0.30707516 0.25490196
155 0.30747211 0.25490196
156 0.30787233 0.27450980
157 0.30827582 0.25490196
158 0.30868257 0.27450980
159 0.30909241 0.27450980
160 0.30950551 0.27450980
161 0.30992169 0.27450980
162 0.31034096 0.27450980
163 0.31076330 0.27450980
164 0.31118871 0.27450980
165 0.31161703 0.27450980
166 0.31204811 0.27450980
167 0.31248209 0.27450980
168 0.31291895 0.27450980
169 0.31335870 0.27450980
170 0.31380149 0.29411765
171 0.31424729 0.27450980
172 0.31469611 0.29411765
173 0.31514794 0.29411765
174 0.31560292 0.29411765
175 0.31606105 0.29411765
176 0.31652231 0.29411765
177 0.31698686 0.29411765
178 0.31745484 0.29411765
179 0.31792624 0.29411765
180 0.31840105 0.29411765
181 0.31887926 0.29411765
182 0.31936102 0.31372549
183 0.31984633 0.31372549
184 0.32033517 0.31372549
185 0.32082753 0.31372549
186 0.32132357 0.31372549
187 0.32182327 0.31372549
188 0.32232662 0.33333333
189 0.32283377 0.31372549
190 0.32334471 0.33333333
191 0.32385944 0.33333333
192 0.32437779 0.35294118
193 0.32489990 0.33333333
194 0.32542562 0.33333333
195 0.32595479 0.33333333
196 0.32648755 0.33333333
197 0.32702390 0.33333333
198 0.32756382 0.33333333
199 0.32810715 0.33333333
200 0.32865404 0.35294118
201 0.32920433 0.33333333
202 0.32975786 0.35294118
203 0.33031477 0.33333333
204 0.33087505 0.37254902
205 0.33143870 0.37254902
206 0.33200570 0.37254902
207 0.33257605 0.37254902
208 0.33314989 0.37254902
209 0.33372736 0.37254902
210 0.33430830 0.37254902
211 0.33489285 0.37254902
212 0.33548101 0.37254902
213 0.33607277 0.37254902
214 0.33666795 0.37254902
215 0.33726672 0.37254902
216 0.33786921 0.37254902
217 0.33847525 0.37254902
218 0.33908469 0.39215686
219 0.33969752 0.39215686
220 0.34031388 0.39215686
221 0.34093361 0.39215686
222 0.34155685 0.39215686
223 0.34218360 0.39215686
224 0.34281383 0.39215686
225 0.34344755 0.39215686
226 0.34408474 0.39215686
227 0.34472524 0.39215686
228 0.34536889 0.39215686
229 0.34601569 0.39215686
230 0.34666576 0.39215686
231 0.34731896 0.39215686
232 0.34797526 0.37254902
233 0.34863482 0.37254902
234 0.34929762 0.37254902
235 0.34996395 0.37254902
236 0.35063365 0.37254902
237 0.35130672 0.37254902
238 0.35198329 0.39215686
239 0.35266320 0.39215686
240 0.35334629 0.39215686
241 0.35403270 0.39215686
242 0.35472226 0.39215686
243 0.35541498 0.39215686
244 0.35611068 0.39215686
245 0.35680935 0.39215686
246 0.35751099 0.39215686
247 0.35821558 0.39215686
248 0.35892312 0.39215686
249 0.35963358 0.39215686
250 0.36034697 0.39215686
251 0.36106326 0.39215686
252 0.36178246 0.39215686
253 0.36250439 0.39215686
254 0.36322905 0.39215686
255 0.36395642 0.39215686
256 0.36468649 0.41176471
257 0.36541925 0.37254902
258 0.36615485 0.39215686
259 0.36689326 0.39215686
260 0.36763449 0.39215686
261 0.36837836 0.39215686
262 0.36912486 0.39215686
263 0.36987399 0.39215686
264 0.37062588 0.39215686
265 0.37138037 0.37254902
266 0.37213745 0.39215686
267 0.37289725 0.39215686
268 0.37365978 0.39215686
269 0.37442500 0.39215686
270 0.37519307 0.39215686
271 0.37596397 0.39215686
272 0.37673755 0.39215686
273 0.37751423 0.39215686
274 0.37829385 0.39215686
275 0.37907642 0.39215686
276 0.37986206 0.39215686
277 0.38065060 0.39215686
278 0.38144235 0.39215686
279 0.38223729 0.39215686
280 0.38303556 0.37254902
281 0.38383714 0.39215686
282 0.38464188 0.39215686
283 0.38544975 0.39215686
284 0.38626060 0.39215686
285 0.38707456 0.39215686
286 0.38789148 0.39215686
287 0.38871149 0.39215686
288 0.38953442 0.39215686
289 0.39036026 0.39215686
290 0.39118916 0.39215686
291 0.39202109 0.39215686
292 0.39285605 0.39215686
293 0.39369418 0.39215686
294 0.39453545 0.39215686
295 0.39538002 0.39215686
296 0.39622786 0.39215686
297 0.39707911 0.39215686
298 0.39793377 0.39215686
299 0.39879182 0.37254902
300 0.39965339 0.39215686
301 0.40051862 0.37254902
302 0.40138736 0.39215686
303 0.40225958 0.37254902
304 0.40313528 0.39215686
305 0.40401458 0.39215686
306 0.40489733 0.39215686
307 0.40578336 0.39215686
308 0.40667266 0.39215686
309 0.40756521 0.39215686
310 0.40846101 0.39215686
311 0.40936002 0.39215686
312 0.41026225 0.39215686
313 0.41116768 0.39215686
314 0.41207629 0.39215686
315 0.41298808 0.41176471
316 0.41390317 0.41176471
317 0.41482155 0.41176471
318 0.41574321 0.41176471
319 0.41666829 0.41176471
320 0.41759677 0.43137255
321 0.41852863 0.39215686
322 0.41946387 0.41176471
323 0.42040277 0.39215686
324 0.42134517 0.41176471
325 0.42229090 0.39215686
326 0.42324009 0.41176471
327 0.42419273 0.39215686
328 0.42514881 0.41176471
329 0.42610816 0.41176471
330 0.42707077 0.41176471
331 0.42803677 0.41176471
332 0.42900630 0.41176471
333 0.42997934 0.41176471
334 0.43095588 0.41176471
335 0.43193591 0.41176471
336 0.43291940 0.43137255
337 0.43390650 0.43137255
338 0.43489719 0.43137255
339 0.43589130 0.43137255
340 0.43688882 0.43137255
341 0.43788988 0.43137255
342 0.43889432 0.43137255
343 0.43990227 0.43137255
344 0.44091372 0.43137255
345 0.44192880 0.43137255
346 0.44294735 0.43137255
347 0.44396934 0.43137255
348 0.44499477 0.43137255
349 0.44602377 0.43137255
350 0.44705603 0.43137255
351 0.44809151 0.43137255
352 0.44913022 0.43137255
353 0.45017213 0.43137255
354 0.45121723 0.43137255
355 0.45226550 0.41176471
356 0.45331677 0.43137255
357 0.45437103 0.41176471
358 0.45542827 0.43137255
359 0.45648830 0.43137255
360 0.45755113 0.43137255
361 0.45861642 0.43137255
362 0.45968416 0.43137255
363 0.46075404 0.43137255
364 0.46182589 0.43137255
365 0.46289923 0.43137255
366 0.46397390 0.43137255
367 0.46504958 0.43137255
368 0.46612625 0.43137255
369 0.46720404 0.43137255
370 0.46828280 0.43137255
371 0.46936265 0.43137255
372 0.47044373 0.43137255
373 0.47152647 0.43137255
374 0.47261117 0.43137255
375 0.47369810 0.43137255
376 0.47478741 0.43137255
377 0.47587921 0.43137255
378 0.47697396 0.43137255
379 0.47807179 0.43137255
380 0.47917298 0.43137255
381 0.48027782 0.43137255
382 0.48138628 0.43137255
383 0.48249852 0.43137255
384 0.48361449 0.45098039
385 0.48473435 0.43137255
386 0.48585793 0.43137255
387 0.48698535 0.41176471
388 0.48811659 0.41176471
389 0.48925165 0.41176471
390 0.49039066 0.43137255
391 0.49153344 0.41176471
392 0.49267998 0.41176471
393 0.49383042 0.41176471
394 0.49498427 0.41176471
395 0.49614153 0.41176471
396 0.49730202 0.41176471
397 0.49846589 0.41176471
398 0.49963294 0.43137255
399 0.50080318 0.43137255
400 0.50197644 0.43137255
401 0.50315268 0.43137255
402 0.50433175 0.43137255
403 0.50551332 0.43137255
404 0.50669753 0.45098039
405 0.50788421 0.43137255
406 0.50907348 0.45098039
407 0.51026519 0.43137255
408 0.51145946 0.43137255
409 0.51265627 0.43137255
410 0.51385576 0.45098039
411 0.51505791 0.45098039
412 0.51626300 0.45098039
413 0.51747117 0.45098039
414 0.51868255 0.47058824
415 0.51989711 0.45098039
416 0.52111500 0.47058824
417 0.52233588 0.45098039
418 0.52356021 0.47058824
419 0.52478795 0.45098039
420 0.52601938 0.47058824
421 0.52725450 0.45098039
422 0.52849359 0.47058824
423 0.52973662 0.45098039
424 0.53098372 0.47058824
425 0.53223504 0.47058824
426 0.53349054 0.47058824
427 0.53475022 0.47058824
428 0.53601419 0.47058824
429 0.53728245 0.47058824
430 0.53855513 0.47058824
431 0.53983205 0.47058824
432 0.54111349 0.47058824
433 0.54239944 0.47058824
434 0.54369048 0.47058824
435 0.54498629 0.47058824
436 0.54628700 0.47058824
437 0.54759259 0.47058824
438 0.54890319 0.47058824
439 0.55021879 0.47058824
440 0.55153950 0.47058824
441 0.55286517 0.47058824
442 0.55419591 0.47058824
443 0.55553172 0.47058824
444 0.55687257 0.47058824
445 0.55821843 0.47058824
446 0.55956930 0.47058824
447 0.56092499 0.47058824
448 0.56228564 0.50980392
449 0.56365077 0.47058824
450 0.56502051 0.49019608
451 0.56639439 0.47058824
452 0.56777254 0.47058824
453 0.56915463 0.47058824
454 0.57054080 0.47058824
455 0.57193087 0.45098039
456 0.57332482 0.47058824
457 0.57472232 0.45098039
458 0.57612321 0.47058824
459 0.57752700 0.47058824
460 0.57893368 0.47058824
461 0.58034247 0.47058824
462 0.58175335 0.47058824
463 0.58316569 0.47058824
464 0.58457932 0.47058824
465 0.58599391 0.47058824
466 0.58740929 0.49019608
467 0.58882498 0.49019608
468 0.59024067 0.49019608
469 0.59165602 0.49019608
470 0.59307072 0.49019608
471 0.59448428 0.49019608
472 0.59589639 0.49019608
473 0.59730686 0.49019608
474 0.59871553 0.49019608
475 0.60012223 0.49019608
476 0.60152693 0.49019608
477 0.60292946 0.49019608
478 0.60432964 0.49019608
479 0.60572747 0.49019608
480 0.60712290 0.49019608
481 0.60851562 0.49019608
482 0.60990546 0.49019608
483 0.61129195 0.49019608
484 0.61267490 0.49019608
485 0.61405385 0.49019608
486 0.61542862 0.49019608
487 0.61679858 0.49019608
488 0.61816357 0.49019608
489 0.61952326 0.49019608
490 0.62087763 0.49019608
491 0.62222651 0.49019608
492 0.62356972 0.50980392
493 0.62490709 0.50980392
494 0.62623861 0.50980392
495 0.62756410 0.50980392
496 0.62888354 0.50980392
497 0.63019676 0.50980392
498 0.63150374 0.50980392
499 0.63280461 0.49019608
500 0.63409935 0.50980392
501 0.63538809 0.49019608
502 0.63667096 0.50980392
503 0.63794794 0.49019608
504 0.63921932 0.50980392
505 0.64048508 0.49019608
506 0.64174534 0.49019608
507 0.64300024 0.49019608
508 0.64424991 0.49019608
509 0.64549479 0.49019608
510 0.64673516 0.49019608
511 0.64797130 0.50980392
512 0.64920349 0.50980392
513 0.65043202 0.49019608
514 0.65165718 0.50980392
515 0.65287908 0.50980392
516 0.65409803 0.50980392
517 0.65531399 0.50980392
518 0.65652711 0.50980392
519 0.65773736 0.50980392
520 0.65894487 0.49019608
521 0.66014963 0.50980392
522 0.66135192 0.50980392
523 0.66255187 0.50980392
524 0.66374977 0.52941176
525 0.66494606 0.52941176
526 0.66614100 0.52941176
527 0.66733490 0.52941176
528 0.66852803 0.54901961
529 0.66972068 0.54901961
530 0.67091328 0.54901961
531 0.67210582 0.54901961
532 0.67329872 0.56862745
533 0.67449244 0.56862745
534 0.67568708 0.56862745
535 0.67688326 0.56862745
536 0.67808109 0.56862745
537 0.67928086 0.58823529
538 0.68048285 0.58823529
539 0.68168735 0.58823529
540 0.68289434 0.58823529
541 0.68410381 0.58823529
542 0.68531572 0.58823529
543 0.68653023 0.58823529
544 0.68774729 0.58823529
545 0.68896721 0.58823529
546 0.69018996 0.58823529
547 0.69141582 0.58823529
548 0.69264478 0.60784314
549 0.69387697 0.60784314
550 0.69511251 0.60784314
551 0.69635140 0.62745098
552 0.69759361 0.64705882
553 0.69883912 0.64705882
554 0.70008777 0.64705882
555 0.70133967 0.64705882
556 0.70259468 0.64705882
557 0.70385275 0.64705882
558 0.70511374 0.62745098
559 0.70637760 0.64705882
560 0.70764433 0.64705882
561 0.70891391 0.62745098
562 0.71018616 0.62745098
563 0.71146076 0.60784314
564 0.71273770 0.60784314
565 0.71401695 0.60784314
566 0.71529834 0.60784314
567 0.71658185 0.60784314
568 0.71786762 0.60784314
569 0.71915547 0.60784314
570 0.72044539 0.62745098
571 0.72173704 0.62745098
572 0.72303042 0.64705882
573 0.72432535 0.64705882
574 0.72562165 0.64705882
575 0.72691901 0.66666667
576 0.72821741 0.68627451
577 0.72951667 0.68627451
578 0.73081648 0.68627451
579 0.73211696 0.68627451
580 0.73341809 0.70588235
581 0.73471986 0.72549020
582 0.73602208 0.72549020
583 0.73732460 0.72549020
584 0.73862724 0.74509804
585 0.73992983 0.74509804
586 0.74123250 0.74509804
587 0.74253523 0.72549020
588 0.74383800 0.74509804
589 0.74514063 0.74509804
590 0.74644342 0.74509804
591 0.74774634 0.74509804
592 0.74904936 0.76470588
593 0.75035263 0.74509804
594 0.75165642 0.76470588
595 0.75296072 0.76470588
596 0.75426550 0.76470588
597 0.75557089 0.76470588
598 0.75687688 0.76470588
599 0.75818344 0.76470588
600 0.75949056 0.74509804
601 0.76079821 0.76470588
602 0.76210683 0.76470588
603 0.76341639 0.76470588
604 0.76472673 0.78431373
605 0.76603798 0.78431373
606 0.76734997 0.80392157
607 0.76866266 0.80392157
608 0.76997591 0.80392157
609 0.77128967 0.78431373
610 0.77260409 0.80392157
611 0.77391900 0.80392157
612 0.77523436 0.80392157
613 0.77655017 0.80392157
614 0.77786640 0.82352941
615 0.77918273 0.82352941
616 0.78049899 0.82352941
617 0.78181500 0.82352941
618 0.78313030 0.84313725
619 0.78444470 0.84313725
620 0.78575805 0.84313725
621 0.78707002 0.84313725
622 0.78838028 0.84313725
623 0.78968851 0.84313725
624 0.79099439 0.84313725
625 0.79229790 0.84313725
626 0.79359886 0.84313725
627 0.79489727 0.84313725
628 0.79619309 0.84313725
629 0.79748661 0.82352941
630 0.79877797 0.84313725
631 0.80006759 0.82352941
632 0.80135560 0.84313725
633 0.80264230 0.84313725
634 0.80392765 0.84313725
635 0.80521194 0.84313725
636 0.80649516 0.86274510
637 0.80777743 0.86274510
638 0.80905873 0.86274510
639 0.81033905 0.86274510
640 0.81161836 0.86274510
641 0.81289680 0.84313725
642 0.81417419 0.84313725
643 0.81545067 0.84313725
644 0.81672606 0.84313725
645 0.81800050 0.84313725
646 0.81927411 0.84313725
647 0.82054689 0.84313725
648 0.82181880 0.86274510
649 0.82308984 0.86274510
650 0.82435997 0.86274510
651 0.82562918 0.84313725
652 0.82689730 0.84313725
653 0.82816416 0.82352941
654 0.82942989 0.84313725
655 0.83069433 0.84313725
656 0.83195744 0.84313725
657 0.83321936 0.84313725
658 0.83448007 0.84313725
659 0.83573941 0.84313725
660 0.83699735 0.84313725
661 0.83825387 0.84313725
662 0.83950895 0.86274510
663 0.84076258 0.84313725
664 0.84201458 0.86274510
665 0.84326479 0.86274510
666 0.84451318 0.86274510
667 0.84575988 0.86274510
668 0.84700488 0.88235294
669 0.84824816 0.88235294
670 0.84948970 0.90196078
671 0.85072947 0.92156863
672 0.85196747 0.92156863
673 0.85320351 0.92156863
674 0.85443744 0.94117647
675 0.85566937 0.92156863
676 0.85689915 0.94117647
677 0.85812675 0.94117647
678 0.85935200 0.94117647
679 0.86057503 0.94117647
680 0.86179569 0.94117647
681 0.86301393 0.94117647
682 0.86422975 0.94117647
683 0.86544313 0.94117647
684 0.86665406 0.94117647
685 0.86786250 0.94117647
686 0.86906844 0.94117647
687 0.87027187 0.94117647
688 0.87147276 0.96078431
689 0.87267125 0.96078431
690 0.87386747 0.98039216
691 0.87506125 0.96078431
692 0.87625257 1.00000000
693 0.87744141 1.01960784
694 0.87862776 1.01960784
695 0.87981160 1.01960784
696 0.88099261 1.03921569
697 0.88217091 1.01960784
698 0.88334635 1.01960784
699 0.88451890 1.01960784
700 0.88568854 1.01960784
701 0.88685510 1.01960784
702 0.88801858 1.01960784
703 0.88917879 1.03921569
704 0.89033572 1.03921569
705 0.89148935 1.01960784
706 0.89263952 1.01960784
707 0.89378620 1.01960784
708 0.89492937 1.01960784
709 0.89606903 1.01960784
710 0.89720515 1.01960784
711 0.89833772 1.01960784
712 0.89946671 1.01960784
713 0.90059226 1.01960784
714 0.90171436 1.03921569
715 0.90283298 1.03921569
716 0.90394797 1.05882353
717 0.90505929 1.05882353
718 0.90616663 1.07843137
719 0.90727013 1.05882353
720 0.90836962 1.05882353
721 0.90946508 1.03921569
722 0.91055664 1.05882353
723 0.91164413 1.05882353
724 0.91272755 1.05882353
725 0.91380687 1.05882353
726 0.91488193 1.07843137
727 0.91595270 1.05882353
728 0.91701918 1.05882353
729 0.91808104 1.07843137
730 0.91913842 1.09803922
731 0.92019145 1.09803922
732 0.92123997 1.09803922
733 0.92228395 1.09803922
734 0.92332339 1.09803922
735 0.92435842 1.09803922
736 0.92538902 1.11764706
737 0.92641518 1.11764706
738 0.92743688 1.13725490
739 0.92845410 1.13725490
740 0.92946683 1.13725490
741 0.93047506 1.13725490
742 0.93147861 1.11764706
743 0.93247763 1.11764706
744 0.93347209 1.11764706
745 0.93446198 1.11764706
746 0.93544730 1.11764706
747 0.93642801 1.11764706
748 0.93740426 1.11764706
749 0.93837588 1.09803922
750 0.93934301 1.11764706
751 0.94030548 1.09803922
752 0.94126328 1.11764706
753 0.94221654 1.09803922
754 0.94316525 1.09803922
755 0.94410939 1.09803922
756 0.94504895 1.09803922
757 0.94598407 1.07843137
758 0.94691458 1.07843137
759 0.94784031 1.07843137
760 0.94876140 1.05882353
761 0.94967754 1.01960784
762 0.95058871 1.00000000
763 0.95149490 0.94117647
764 0.95239594 0.90196078
