# Blue curve: LED brightness = 5, Integration time = 50
# Red curve: LED brightness = 5, Integration time = 49 (if applicable)
# Channel, Intensity (blue line) [V], Intensity (red line, if applicable) [V]
0 0.38593826 0.33333333
1 0.38593826 0.31372549
2 0.38593865 0.33333333
3 0.38593945 0.33333333
4 0.38594080 0.35294118
5 0.38594254 0.35294118
6 0.38594484 0.35294118
7 0.38594753 0.35294118
8 0.38595077 0.37254902
9 0.38595456 0.37254902
10 0.38595875 0.39215686
11 0.38596364 0.37254902
12 0.38596938 0.39215686
13 0.38597612 0.39215686
14 0.38598386 0.39215686
15 0.38599261 0.39215686
16 0.38600236 0.39215686
17 0.38601326 0.39215686
18 0.38602517 0.39215686
19 0.38603808 0.39215686
20 0.38605213 0.39215686
21 0.38606750 0.39215686
22 0.38608416 0.39215686
23 0.38610213 0.39215686
24 0.38612141 0.39215686
25 0.38614198 0.39215686
26 0.38616386 0.39215686
27 0.38618704 0.39215686
28 0.38621167 0.41176471
29 0.38623775 0.41176471
30 0.38626544 0.41176471
31 0.38629473 0.43137255
32 0.38632562 0.43137255
33 0.38635812 0.43137255
34 0.38639236 0.43137255
35 0.38642821 0.43137255
36 0.38646581 0.45098039
37 0.38650501 0.45098039
38 0.38654581 0.45098039
39 0.38658820 0.45098039
40 0.38663204 0.45098039
41 0.38667733 0.45098039
42 0.38672407 0.45098039
43 0.38677224 0.43137255
44 0.38682187 0.45098039
45 0.38687293 0.45098039
46 0.38692544 0.45098039
47 0.38697939 0.45098039
48 0.38703478 0.45098039
49 0.38709160 0.45098039
50 0.38715002 0.45098039
51 0.38720988 0.45098039
52 0.38727117 0.45098039
53 0.38733390 0.45098039
54 0.38739807 0.45098039
55 0.38746382 0.45098039
56 0.38753115 0.45098039
57 0.38759992 0.43137255
58 0.38767027 0.45098039
59 0.38774220 0.43137255
60 0.38781555 0.45098039
61 0.38789019 0.43137255
62 0.38796625 0.45098039
63 0.38804359 0.45098039
64 0.38812204 0.47058824
65 0.38820162 0.43137255
66 0.38828247 0.45098039
67 0.38836459 0.45098039
68 0.38844797 0.45098039
69 0.38853262 0.45098039
70 0.38861839 0.45098039
71 0.38870527 0.45098039
72 0.38879326 0.45098039
73 0.38888236 0.45098039
74 0.38897257 0.45098039
75 0.38906389 0.45098039
76 0.38915631 0.45098039
77 0.38924984 0.45098039
78 0.38934462 0.45098039
79 0.38944050 0.43137255
80 0.38953749 0.45098039
81 0.38963572 0.43137255
82 0.38973505 0.43137255
83 0.38983548 0.43137255
84 0.38993685 0.43137255
85 0.39003916 0.43137255
86 0.39014226 0.43137255
87 0.39024615 0.41176471
88 0.39035082 0.41176471
89 0.39045612 0.41176471
90 0.39056206 0.43137255
91 0.39066862 0.41176471
92 0.39077582 0.43137255
93 0.39088348 0.41176471
94 0.39099147 0.43137255
95 0.39109978 0.41176471
96 0.39120826 0.43137255
97 0.39131690 0.39215686
98 0.39142571 0.43137255
99 0.39153468 0.43137255
100 0.39164366 0.43137255
101 0.39175265 0.41176471
102 0.39186164 0.43137255
103 0.39197049 0.43137255
104 0.39207904 0.43137255
105 0.39218743 0.41176471
106 0.39229568 0.41176471
107 0.39240362 0.41176471
108 0.39251111 0.43137255
109 0.39261828 0.41176471
110 0.39272500 0.43137255
111 0.39283125 0.41176471
112 0.39293704 0.43137255
113 0.39304236 0.41176471
114 0.39314737 0.43137255
115 0.39325191 0.41176471
116 0.39335598 0.41176471
117 0.39345957 0.41176471
118 0.39356254 0.43137255
119 0.39366489 0.41176471
120 0.39376661 0.43137255
121 0.39386754 0.43137255
122 0.39396800 0.43137255
123 0.39406797 0.43137255
124 0.39416746 0.43137255
125 0.39426647 0.43137255
126 0.39436499 0.43137255
127 0.39446303 0.43137255
128 0.39456042 0.45098039
129 0.39465717 0.41176471
130 0.39475343 0.43137255
131 0.39484919 0.41176471
132 0.39494446 0.41176471
133 0.39503924 0.41176471
134 0.39513336 0.41176471
135 0.39522684 0.41176471
136 0.39531981 0.41176471
137 0.39541228 0.41176471
138 0.39550410 0.41176471
139 0.39559541 0.41176471
140 0.39568621 0.41176471
141 0.39577651 0.41176471
142 0.39586629 0.41176471
143 0.39595557 0.41176471
144 0.39604433 0.41176471
145 0.39613273 0.39215686
146 0.39622062 0.41176471
147 0.39630799 0.41176471
148 0.39639484 0.41176471
149 0.39648103 0.41176471
150 0.39656654 0.41176471
151 0.39665138 0.39215686
152 0.39673569 0.39215686
153 0.39681963 0.41176471
154 0.39690305 0.41176471
155 0.39698609 0.39215686
156 0.39706876 0.39215686
157 0.39715104 0.39215686
158 0.39723295 0.39215686
159 0.39731433 0.39215686
160 0.39739517 0.37254902
161 0.39747548 0.37254902
162 0.39755525 0.37254902
163 0.39763433 0.37254902
164 0.39771273 0.39215686
165 0.39779043 0.37254902
166 0.39786744 0.39215686
167 0.39794376 0.39215686
168 0.39801954 0.39215686
169 0.39809478 0.39215686
170 0.39816961 0.39215686
171 0.39824406 0.37254902
172 0.39831811 0.37254902
173 0.39839176 0.37254902
174 0.39846501 0.37254902
175 0.39853786 0.37254902
176 0.39861046 0.37254902
177 0.39868282 0.35294118
178 0.39875522 0.37254902
179 0.39882752 0.35294118
180 0.39889972 0.35294118
181 0.39897196 0.35294118
182 0.39904425 0.35294118
183 0.39911659 0.35294118
184 0.39918912 0.35294118
185 0.39926185 0.33333333
186 0.39933507 0.35294118
187 0.39940878 0.33333333
188 0.39948314 0.35294118
189 0.39955814 0.33333333
190 0.39963379 0.35294118
191 0.39971007 0.33333333
192 0.39978699 0.35294118
193 0.39986456 0.31372549
194 0.39994275 0.31372549
195 0.40002159 0.31372549
196 0.40010106 0.31372549
197 0.40018116 0.31372549
198 0.40026190 0.31372549
199 0.40034326 0.31372549
200 0.40042526 0.31372549
201 0.40050803 0.29411765
202 0.40059144 0.29411765
203 0.40067546 0.29411765
204 0.40076027 0.29411765
205 0.40084570 0.29411765
206 0.40093190 0.29411765
207 0.40101887 0.29411765
208 0.40110676 0.29411765
209 0.40119573 0.29411765
210 0.40128576 0.29411765
211 0.40137687 0.29411765
212 0.40146904 0.29411765
213 0.40156228 0.29411765
214 0.40165658 0.29411765
215 0.40175194 0.27450980
216 0.40184807 0.27450980
217 0.40194510 0.27450980
218 0.40204304 0.27450980
219 0.40214189 0.27450980
220 0.40224179 0.27450980
221 0.40234260 0.27450980
222 0.40244430 0.27450980
223 0.40254706 0.27450980
224 0.40265071 0.27450980
225 0.40275542 0.27450980
226 0.40286101 0.27450980
227 0.40296750 0.27450980
228 0.40307489 0.27450980
229 0.40318301 0.27450980
230 0.40329186 0.25490196
231 0.40340146 0.27450980
232 0.40351179 0.27450980
233 0.40362269 0.27450980
234 0.40373403 0.27450980
235 0.40384594 0.27450980
236 0.40395843 0.27450980
237 0.40407119 0.27450980
238 0.40418422 0.27450980
239 0.40429752 0.27450980
240 0.40441109 0.27450980
241 0.40452507 0.27450980
242 0.40463946 0.27450980
243 0.40475412 0.27450980
244 0.40486903 0.27450980
245 0.40498421 0.27450980
246 0.40509948 0.27450980
247 0.40521486 0.25490196
248 0.40533034 0.27450980
249 0.40544577 0.25490196
250 0.40556130 0.25490196
251 0.40567677 0.25490196
252 0.40579203 0.25490196
253 0.40590724 0.27450980
254 0.40602223 0.27450980
255 0.40613716 0.27450980
256 0.40625187 0.29411765
257 0.40636637 0.27450980
258 0.40648079 0.27450980
259 0.40659500 0.27450980
260 0.40670898 0.29411765
261 0.40682274 0.29411765
262 0.40693628 0.29411765
263 0.40704958 0.29411765
264 0.40716266 0.29411765
265 0.40727550 0.29411765
266 0.40738812 0.29411765
267 0.40750049 0.29411765
268 0.40761278 0.31372549
269 0.40772499 0.31372549
270 0.40783725 0.31372549
271 0.40794973 0.31372549
272 0.40806227 0.31372549
273 0.40817532 0.31372549
274 0.40828872 0.33333333
275 0.40840248 0.33333333
276 0.40851675 0.33333333
277 0.40863152 0.33333333
278 0.40874679 0.33333333
279 0.40886257 0.33333333
280 0.40897899 0.33333333
281 0.40909606 0.33333333
282 0.40921362 0.33333333
283 0.40933183 0.33333333
284 0.40945053 0.35294118
285 0.40956972 0.35294118
286 0.40968955 0.35294118
287 0.40981016 0.35294118
288 0.40993156 0.35294118
289 0.41005375 0.35294118
290 0.41017672 0.35294118
291 0.41030046 0.35294118
292 0.41042514 0.37254902
293 0.41055090 0.37254902
294 0.41067773 0.37254902
295 0.41080564 0.37254902
296 0.41093462 0.37254902
297 0.41106483 0.37254902
298 0.41119641 0.37254902
299 0.41132950 0.37254902
300 0.41146397 0.37254902
301 0.41159995 0.37254902
302 0.41173759 0.39215686
303 0.41187675 0.37254902
304 0.41201742 0.37254902
305 0.41215975 0.37254902
306 0.41230358 0.39215686
307 0.41244892 0.37254902
308 0.41259561 0.39215686
309 0.41274379 0.39215686
310 0.41289333 0.39215686
311 0.41304435 0.39215686
312 0.41319672 0.39215686
313 0.41335043 0.39215686
314 0.41350547 0.39215686
315 0.41366200 0.39215686
316 0.41382001 0.41176471
317 0.41397950 0.39215686
318 0.41414046 0.41176471
319 0.41430291 0.41176471
320 0.41446697 0.43137255
321 0.41463281 0.41176471
322 0.41480027 0.41176471
323 0.41496950 0.41176471
324 0.41514049 0.41176471
325 0.41531309 0.41176471
326 0.41548730 0.41176471
327 0.41566312 0.41176471
328 0.41584054 0.41176471
329 0.41601940 0.41176471
330 0.41619987 0.41176471
331 0.41638193 0.41176471
332 0.41656558 0.43137255
333 0.41675082 0.43137255
334 0.41693765 0.43137255
335 0.41712606 0.43137255
336 0.41731590 0.43137255
337 0.41750747 0.43137255
338 0.41770061 0.45098039
339 0.41789517 0.45098039
340 0.41809116 0.45098039
341 0.41828870 0.43137255
342 0.41848781 0.47058824
343 0.41868863 0.47058824
344 0.41889100 0.45098039
345 0.41909508 0.47058824
346 0.41930086 0.47058824
347 0.41950834 0.47058824
348 0.41971737 0.47058824
349 0.41992793 0.45098039
350 0.42014003 0.47058824
351 0.42035366 0.47058824
352 0.42056883 0.47058824
353 0.42078552 0.47058824
354 0.42100374 0.47058824
355 0.42122347 0.47058824
356 0.42144473 0.47058824
357 0.42166734 0.47058824
358 0.42189132 0.47058824
359 0.42211665 0.47058824
360 0.42234334 0.47058824
361 0.42257122 0.47058824
362 0.42280029 0.49019608
363 0.42303041 0.47058824
364 0.42326141 0.49019608
365 0.42349298 0.49019608
366 0.42372514 0.49019608
367 0.42395756 0.49019608
368 0.42419025 0.49019608
369 0.42442320 0.49019608
370 0.42465625 0.49019608
371 0.42488941 0.47058824
372 0.42512282 0.49019608
373 0.42535663 0.47058824
374 0.42559084 0.47058824
375 0.42582574 0.47058824
376 0.42606133 0.47058824
377 0.42629760 0.47058824
378 0.42653472 0.47058824
379 0.42677281 0.47058824
380 0.42701203 0.47058824
381 0.42725238 0.45098039
382 0.42749400 0.45098039
383 0.42773689 0.45098039
384 0.42798104 0.47058824
385 0.42822646 0.43137255
386 0.42847328 0.45098039
387 0.42872136 0.43137255
388 0.42897100 0.45098039
389 0.42922218 0.43137255
390 0.42947506 0.43137255
391 0.42972963 0.43137255
392 0.42998573 0.41176471
393 0.43024337 0.41176471
394 0.43050255 0.41176471
395 0.43076324 0.41176471
396 0.43102546 0.41176471
397 0.43128919 0.41176471
398 0.43155444 0.41176471
399 0.43182119 0.41176471
400 0.43208961 0.41176471
401 0.43235952 0.41176471
402 0.43263108 0.41176471
403 0.43290429 0.41176471
404 0.43317913 0.43137255
405 0.43345561 0.41176471
406 0.43373402 0.41176471
407 0.43401436 0.41176471
408 0.43429678 0.43137255
409 0.43458127 0.43137255
410 0.43486798 0.43137255
411 0.43515690 0.43137255
412 0.43544833 0.45098039
413 0.43574228 0.45098039
414 0.43603872 0.45098039
415 0.43633766 0.45098039
416 0.43663910 0.45098039
417 0.43694302 0.47058824
418 0.43724943 0.47058824
419 0.43755832 0.47058824
420 0.43786983 0.47058824
421 0.43818397 0.47058824
422 0.43850087 0.47058824
423 0.43882039 0.47058824
424 0.43914266 0.49019608
425 0.43946768 0.47058824
426 0.43979561 0.49019608
427 0.44012642 0.49019608
428 0.44046043 0.49019608
429 0.44079748 0.49019608
430 0.44113800 0.50980392
431 0.44148201 0.49019608
432 0.44182979 0.50980392
433 0.44218134 0.49019608
434 0.44253711 0.50980392
435 0.44289678 0.49019608
436 0.44326067 0.49019608
437 0.44362875 0.49019608
438 0.44400118 0.49019608
439 0.44437796 0.49019608
440 0.44475906 0.49019608
441 0.44514450 0.49019608
442 0.44553441 0.49019608
443 0.44592879 0.49019608
444 0.44632794 0.49019608
445 0.44673184 0.49019608
446 0.44714065 0.49019608
447 0.44755450 0.49019608
448 0.44797355 0.50980392
449 0.44839794 0.49019608
450 0.44882796 0.49019608
451 0.44926361 0.49019608
452 0.44970503 0.49019608
453 0.45015221 0.50980392
454 0.45060530 0.50980392
455 0.45106415 0.50980392
456 0.45152889 0.50980392
457 0.45199936 0.50980392
458 0.45247557 0.50980392
459 0.45295719 0.49019608
460 0.45344423 0.50980392
461 0.45393637 0.49019608
462 0.45443360 0.50980392
463 0.45493532 0.49019608
464 0.45544136 0.50980392
465 0.45595157 0.50980392
466 0.45646593 0.50980392
467 0.45698398 0.50980392
468 0.45750573 0.50980392
469 0.45803115 0.50980392
470 0.45856024 0.50980392
471 0.45909270 0.50980392
472 0.45962850 0.50980392
473 0.46016735 0.50980392
474 0.46070908 0.49019608
475 0.46125354 0.52941176
476 0.46180055 0.52941176
477 0.46234982 0.50980392
478 0.46290133 0.50980392
479 0.46345478 0.50980392
480 0.46400999 0.50980392
481 0.46456667 0.50980392
482 0.46512465 0.50980392
483 0.46568348 0.49019608
484 0.46624283 0.49019608
485 0.46680240 0.49019608
486 0.46736187 0.49019608
487 0.46792095 0.49019608
488 0.46847931 0.47058824
489 0.46903649 0.47058824
490 0.46959218 0.47058824
491 0.47014623 0.45098039
492 0.47069862 0.45098039
493 0.47124904 0.43137255
494 0.47179763 0.43137255
495 0.47234410 0.43137255
496 0.47288857 0.43137255
497 0.47343073 0.41176471
498 0.47397074 0.43137255
499 0.47450858 0.41176471
500 0.47504439 0.41176471
501 0.47557832 0.39215686
502 0.47611035 0.39215686
503 0.47664049 0.39215686
504 0.47716902 0.39215686
505 0.47769609 0.37254902
506 0.47822200 0.37254902
507 0.47874687 0.37254902
508 0.47927102 0.37254902
509 0.47979473 0.37254902
510 0.48031845 0.37254902
511 0.48084232 0.37254902
512 0.48136664 0.39215686
513 0.48189170 0.37254902
514 0.48241795 0.37254902
515 0.48294537 0.37254902
516 0.48347427 0.37254902
517 0.48400478 0.37254902
518 0.48453705 0.37254902
519 0.48507123 0.39215686
520 0.48560759 0.39215686
521 0.48614615 0.39215686
522 0.48668719 0.39215686
523 0.48723100 0.39215686
524 0.48777758 0.41176471
525 0.48832722 0.39215686
526 0.48887991 0.39215686
527 0.48943565 0.39215686
528 0.48999458 0.41176471
529 0.49055683 0.41176471
530 0.49112270 0.41176471
531 0.49169220 0.41176471
532 0.49226559 0.41176471
533 0.49284319 0.41176471
534 0.49342514 0.43137255
535 0.49401157 0.43137255
536 0.49460262 0.41176471
537 0.49519845 0.43137255
538 0.49579904 0.43137255
539 0.49640453 0.43137255
540 0.49701492 0.43137255
541 0.49763018 0.43137255
542 0.49825018 0.45098039
543 0.49887488 0.45098039
544 0.49950414 0.45098039
545 0.50013794 0.45098039
546 0.50077598 0.45098039
547 0.50141793 0.45098039
548 0.50206379 0.45098039
549 0.50271340 0.45098039
550 0.50336660 0.47058824
551 0.50402322 0.47058824
552 0.50468310 0.47058824
553 0.50534624 0.47058824
554 0.50601232 0.47058824
555 0.50668148 0.47058824
556 0.50735372 0.47058824
557 0.50802886 0.45098039
558 0.50870706 0.45098039
559 0.50938815 0.45098039
560 0.51007181 0.45098039
561 0.51075834 0.43137255
562 0.51144758 0.43137255
563 0.51213921 0.43137255
564 0.51283292 0.43137255
565 0.51352870 0.43137255
566 0.51422609 0.45098039
567 0.51492538 0.45098039
568 0.51562640 0.47058824
569 0.51632899 0.45098039
570 0.51703314 0.47058824
571 0.51773885 0.47058824
572 0.51844595 0.47058824
573 0.51915442 0.47058824
574 0.51986412 0.49019608
575 0.52057501 0.49019608
576 0.52128695 0.52941176
577 0.52199993 0.50980392
578 0.52271392 0.50980392
579 0.52342878 0.52941176
580 0.52414463 0.52941176
581 0.52486132 0.52941176
582 0.52557884 0.54901961
583 0.52629717 0.54901961
584 0.52701615 0.56862745
585 0.52773578 0.54901961
586 0.52845589 0.58823529
587 0.52917631 0.58823529
588 0.52989719 0.58823529
589 0.53061836 0.58823529
590 0.53133982 0.58823529
591 0.53206140 0.58823529
592 0.53278324 0.58823529
593 0.53350518 0.58823529
594 0.53422721 0.58823529
595 0.53494932 0.58823529
596 0.53567119 0.58823529
597 0.53639281 0.58823529
598 0.53711402 0.58823529
599 0.53783481 0.58823529
600 0.53855502 0.56862745
601 0.53927463 0.56862745
602 0.53999364 0.56862745
603 0.54071188 0.58823529
604 0.54142933 0.58823529
605 0.54214600 0.58823529
606 0.54286172 0.58823529
607 0.54357648 0.58823529
608 0.54428995 0.60784314
609 0.54500229 0.58823529
610 0.54571334 0.60784314
611 0.54642307 0.58823529
612 0.54713148 0.60784314
613 0.54783856 0.58823529
614 0.54854414 0.58823529
615 0.54924823 0.56862745
616 0.54995064 0.56862745
617 0.55065123 0.56862745
618 0.55134967 0.58823529
619 0.55204596 0.56862745
620 0.55273994 0.56862745
621 0.55343144 0.56862745
622 0.55412031 0.56862745
623 0.55480637 0.56862745
624 0.55548947 0.56862745
625 0.55616975 0.54901961
626 0.55684705 0.54901961
627 0.55752135 0.52941176
628 0.55819265 0.52941176
629 0.55886124 0.50980392
630 0.55952695 0.50980392
631 0.56019009 0.49019608
632 0.56085078 0.49019608
633 0.56150918 0.49019608
634 0.56216526 0.49019608
635 0.56281918 0.49019608
636 0.56347092 0.47058824
637 0.56412047 0.47058824
638 0.56476782 0.47058824
639 0.56541312 0.47058824
640 0.56605635 0.47058824
641 0.56669750 0.45098039
642 0.56733656 0.45098039
643 0.56797353 0.43137255
644 0.56860839 0.43137255
645 0.56924114 0.43137255
646 0.56987176 0.41176471
647 0.57050039 0.41176471
648 0.57112703 0.41176471
649 0.57175152 0.39215686
650 0.57237399 0.39215686
651 0.57299428 0.39215686
652 0.57361240 0.39215686
653 0.57422832 0.39215686
654 0.57484188 0.39215686
655 0.57545308 0.37254902
656 0.57606206 0.39215686
657 0.57666881 0.37254902
658 0.57727347 0.37254902
659 0.57787588 0.37254902
660 0.57847618 0.37254902
661 0.57907436 0.37254902
662 0.57967042 0.37254902
663 0.58026434 0.37254902
664 0.58085611 0.37254902
665 0.58144574 0.37254902
666 0.58203304 0.39215686
667 0.58261818 0.39215686
668 0.58320113 0.41176471
669 0.58378205 0.41176471
670 0.58436092 0.41176471
671 0.58493788 0.43137255
672 0.58551292 0.43137255
673 0.58608605 0.43137255
674 0.58665724 0.45098039
675 0.58722649 0.45098039
676 0.58779379 0.45098039
677 0.58835898 0.45098039
678 0.58892220 0.47058824
679 0.58948345 0.47058824
680 0.59004271 0.47058824
681 0.59059998 0.47058824
682 0.59115525 0.47058824
683 0.59170851 0.47058824
684 0.59225974 0.49019608
685 0.59280895 0.49019608
686 0.59335628 0.50980392
687 0.59390171 0.49019608
688 0.59444524 0.50980392
689 0.59498701 0.50980392
690 0.59552702 0.52941176
691 0.59606525 0.52941176
692 0.59660154 0.54901961
693 0.59713604 0.54901961
694 0.59766874 0.54901961
695 0.59819948 0.54901961
696 0.59872841 0.56862745
697 0.59925536 0.58823529
698 0.59978017 0.58823529
699 0.60030269 0.58823529
700 0.60082306 0.58823529
701 0.60134126 0.58823529
702 0.60185715 0.58823529
703 0.60237072 0.60784314
704 0.60288194 0.60784314
705 0.60339068 0.58823529
706 0.60389676 0.58823529
707 0.60440033 0.58823529
708 0.60490138 0.58823529
709 0.60539976 0.58823529
710 0.60589546 0.58823529
711 0.60638846 0.58823529
712 0.60687877 0.58823529
713 0.60736636 0.58823529
714 0.60785125 0.58823529
715 0.60833341 0.58823529
716 0.60881269 0.58823529
717 0.60928909 0.58823529
718 0.60976274 0.58823529
719 0.61023349 0.60784314
720 0.61070133 0.60784314
721 0.61116625 0.60784314
722 0.61162840 0.60784314
723 0.61208747 0.58823529
724 0.61254345 0.58823529
725 0.61299633 0.58823529
726 0.61344596 0.58823529
727 0.61389233 0.58823529
728 0.61433527 0.58823529
729 0.61477479 0.58823529
730 0.61521088 0.58823529
731 0.61564353 0.58823529
732 0.61607273 0.58823529
733 0.61649848 0.58823529
734 0.61692092 0.58823529
735 0.61734005 0.58823529
736 0.61775585 0.58823529
737 0.61816848 0.58823529
738 0.61857777 0.60784314
739 0.61898388 0.58823529
740 0.61938693 0.60784314
741 0.61978679 0.60784314
742 0.62018359 0.60784314
743 0.62057733 0.60784314
744 0.62096815 0.60784314
745 0.62135620 0.60784314
746 0.62174132 0.60784314
747 0.62212365 0.58823529
748 0.62250319 0.58823529
749 0.62288009 0.58823529
750 0.62325434 0.58823529
751 0.62362608 0.58823529
752 0.62399531 0.58823529
753 0.62436217 0.58823529
754 0.62472667 0.58823529
755 0.62508878 0.56862745
756 0.62544852 0.56862745
757 0.62580586 0.56862745
758 0.62616096 0.56862745
759 0.62651382 0.54901961
760 0.62686442 0.54901961
761 0.62721276 0.50980392
762 0.62755884 0.50980392
763 0.62790280 0.49019608
764 0.62824479 0.49019608
