# Blue curve: LED brightness = 5, Integration time = 49
# Red curve: LED brightness = 5, Integration time = 50 (if applicable)
# Channel, Intensity (blue line) [V], Intensity (red line, if applicable) [V]
0 0.54784475 0.35294118
1 0.54784475 0.35294118
2 0.54784703 0.35294118
3 0.54785176 0.35294118
4 0.54785876 0.37254902
5 0.54786821 0.37254902
6 0.54788009 0.37254902
7 0.54789426 0.37254902
8 0.54791071 0.39215686
9 0.54792945 0.39215686
10 0.54795032 0.39215686
11 0.54797363 0.39215686
12 0.54799922 0.41176471
13 0.54802725 0.41176471
14 0.54805771 0.43137255
15 0.54809075 0.41176471
16 0.54812623 0.43137255
17 0.54816445 0.43137255
18 0.54820539 0.43137255
19 0.54824892 0.43137255
20 0.54829519 0.43137255
21 0.54834419 0.43137255
22 0.54839576 0.43137255
23 0.54844992 0.43137255
24 0.54850666 0.43137255
25 0.54856597 0.43137255
26 0.54862786 0.43137255
27 0.54869248 0.41176471
28 0.54875983 0.43137255
29 0.54882975 0.43137255
30 0.54890239 0.43137255
31 0.54897761 0.43137255
32 0.54905539 0.45098039
33 0.54913560 0.43137255
34 0.54921837 0.45098039
35 0.54930356 0.45098039
36 0.54939132 0.47058824
37 0.54948149 0.45098039
38 0.54957407 0.47058824
39 0.54966906 0.47058824
40 0.54976646 0.47058824
41 0.54986627 0.47058824
42 0.54996848 0.47058824
43 0.55007310 0.45098039
44 0.55018012 0.47058824
45 0.55028954 0.47058824
46 0.55040121 0.49019608
47 0.55051528 0.49019608
48 0.55063174 0.49019608
49 0.55075075 0.49019608
50 0.55087230 0.49019608
51 0.55099640 0.49019608
52 0.55112288 0.49019608
53 0.55125175 0.49019608
54 0.55138285 0.49019608
55 0.55151634 0.47058824
56 0.55165205 0.47058824
57 0.55178984 0.47058824
58 0.55192986 0.47058824
59 0.55207210 0.47058824
60 0.55221656 0.45098039
61 0.55236339 0.47058824
62 0.55251274 0.49019608
63 0.55266475 0.49019608
64 0.55281928 0.52941176
65 0.55297647 0.49019608
66 0.55313633 0.50980392
67 0.55329884 0.50980392
68 0.55346370 0.50980392
69 0.55363137 0.49019608
70 0.55380169 0.50980392
71 0.55397480 0.49019608
72 0.55415072 0.50980392
73 0.55432942 0.49019608
74 0.55451092 0.50980392
75 0.55469520 0.50980392
76 0.55488243 0.50980392
77 0.55507258 0.50980392
78 0.55526566 0.50980392
79 0.55546183 0.50980392
80 0.55566107 0.50980392
81 0.55586368 0.50980392
82 0.55606967 0.50980392
83 0.55627902 0.52941176
84 0.55649174 0.52941176
85 0.55670798 0.52941176
86 0.55692772 0.52941176
87 0.55715097 0.52941176
88 0.55737772 0.52941176
89 0.55760813 0.52941176
90 0.55784218 0.52941176
91 0.55807987 0.50980392
92 0.55832136 0.52941176
93 0.55856663 0.50980392
94 0.55881554 0.52941176
95 0.55906837 0.52941176
96 0.55932499 0.52941176
97 0.55958522 0.52941176
98 0.55984907 0.52941176
99 0.56011668 0.52941176
100 0.56038791 0.52941176
101 0.56066289 0.52941176
102 0.56094161 0.54901961
103 0.56122409 0.54901961
104 0.56151031 0.54901961
105 0.56180027 0.54901961
106 0.56209396 0.56862745
107 0.56239153 0.54901961
108 0.56269283 0.56862745
109 0.56299785 0.54901961
110 0.56330658 0.56862745
111 0.56361902 0.54901961
112 0.56393517 0.54901961
113 0.56425502 0.54901961
114 0.56457872 0.56862745
115 0.56490610 0.54901961
116 0.56523703 0.56862745
117 0.56557133 0.54901961
118 0.56590900 0.56862745
119 0.56624974 0.54901961
120 0.56659354 0.56862745
121 0.56694040 0.54901961
122 0.56729030 0.56862745
123 0.56764325 0.54901961
124 0.56799924 0.56862745
125 0.56835841 0.54901961
126 0.56872076 0.56862745
127 0.56908659 0.58823529
128 0.56945589 0.58823529
129 0.56982880 0.56862745
130 0.57020548 0.56862745
131 0.57058591 0.56862745
132 0.57096994 0.56862745
133 0.57135771 0.54901961
134 0.57174922 0.54901961
135 0.57214446 0.52941176
136 0.57254343 0.52941176
137 0.57294612 0.52941176
138 0.57335236 0.52941176
139 0.57376217 0.50980392
140 0.57417552 0.50980392
141 0.57459212 0.49019608
142 0.57501194 0.50980392
143 0.57543500 0.49019608
144 0.57586128 0.49019608
145 0.57629077 0.47058824
146 0.57672332 0.49019608
147 0.57715876 0.47058824
148 0.57759710 0.49019608
149 0.57803833 0.50980392
150 0.57848243 0.52941176
151 0.57892956 0.50980392
152 0.57937985 0.52941176
153 0.57983346 0.52941176
154 0.58029037 0.54901961
155 0.58075073 0.52941176
156 0.58121453 0.52941176
157 0.58168191 0.52941176
158 0.58215303 0.54901961
159 0.58262771 0.54901961
160 0.58310612 0.54901961
161 0.58358823 0.54901961
162 0.58407403 0.54901961
163 0.58456339 0.54901961
164 0.58505627 0.56862745
165 0.58555268 0.54901961
166 0.58605276 0.56862745
167 0.58655651 0.56862745
168 0.58706390 0.56862745
169 0.58757510 0.56862745
170 0.58808993 0.56862745
171 0.58860855 0.56862745
172 0.58913094 0.58823529
173 0.58965725 0.58823529
174 0.59018746 0.58823529
175 0.59072143 0.56862745
176 0.59125929 0.58823529
177 0.59180103 0.56862745
178 0.59234665 0.56862745
179 0.59289568 0.54901961
180 0.59344857 0.56862745
181 0.59400516 0.54901961
182 0.59456560 0.54901961
183 0.59512971 0.54901961
184 0.59569765 0.54901961
185 0.59626925 0.54901961
186 0.59684451 0.54901961
187 0.59742327 0.54901961
188 0.59800536 0.56862745
189 0.59859093 0.56862745
190 0.59917997 0.56862745
191 0.59977231 0.58823529
192 0.60036811 0.58823529
193 0.60096720 0.54901961
194 0.60156957 0.58823529
195 0.60217521 0.58823529
196 0.60278411 0.58823529
197 0.60339611 0.58823529
198 0.60401136 0.58823529
199 0.60462969 0.58823529
200 0.60525110 0.58823529
201 0.60587541 0.56862745
202 0.60650263 0.58823529
203 0.60713274 0.58823529
204 0.60776574 0.58823529
205 0.60840146 0.58823529
206 0.60903989 0.58823529
207 0.60968103 0.58823529
208 0.61032485 0.58823529
209 0.61097136 0.58823529
210 0.61162055 0.60784314
211 0.61227224 0.60784314
212 0.61292659 0.60784314
213 0.61358343 0.60784314
214 0.61424276 0.60784314
215 0.61490440 0.58823529
216 0.61556850 0.60784314
217 0.61623506 0.62745098
218 0.61690405 0.62745098
219 0.61757548 0.62745098
220 0.61824948 0.62745098
221 0.61892588 0.62745098
222 0.61960469 0.62745098
223 0.62028589 0.62745098
224 0.62096946 0.62745098
225 0.62165525 0.60784314
226 0.62234325 0.60784314
227 0.62303344 0.60784314
228 0.62372566 0.60784314
229 0.62441991 0.60784314
230 0.62511602 0.60784314
231 0.62581383 0.60784314
232 0.62651333 0.58823529
233 0.62721465 0.58823529
234 0.62791780 0.58823529
235 0.62862290 0.58823529
236 0.62933010 0.58823529
237 0.63003939 0.58823529
238 0.63075105 0.60784314
239 0.63146509 0.60784314
240 0.63218148 0.60784314
241 0.63290037 0.60784314
242 0.63362175 0.60784314
243 0.63434545 0.60784314
244 0.63507161 0.58823529
245 0.63580022 0.58823529
246 0.63653143 0.58823529
247 0.63726522 0.56862745
248 0.63800173 0.58823529
249 0.63874096 0.56862745
250 0.63948303 0.56862745
251 0.64022794 0.56862745
252 0.64097552 0.58823529
253 0.64172577 0.58823529
254 0.64247867 0.58823529
255 0.64323436 0.60784314
256 0.64399284 0.62745098
257 0.64475408 0.60784314
258 0.64551823 0.60784314
259 0.64628543 0.60784314
260 0.64705566 0.62745098
261 0.64782907 0.62745098
262 0.64860579 0.62745098
263 0.64938567 0.62745098
264 0.65016883 0.62745098
265 0.65095527 0.62745098
266 0.65174498 0.62745098
267 0.65253794 0.62745098
268 0.65333430 0.62745098
269 0.65413419 0.62745098
270 0.65493759 0.62745098
271 0.65574481 0.62745098
272 0.65655582 0.64705882
273 0.65737107 0.62745098
274 0.65819040 0.64705882
275 0.65901378 0.64705882
276 0.65984122 0.64705882
277 0.66067299 0.64705882
278 0.66150894 0.64705882
279 0.66234920 0.64705882
280 0.66319361 0.64705882
281 0.66404231 0.64705882
282 0.66489513 0.66666667
283 0.66575221 0.66666667
284 0.66661354 0.68627451
285 0.66747895 0.66666667
286 0.66834843 0.68627451
287 0.66922181 0.68627451
288 0.67009894 0.68627451
289 0.67097994 0.66666667
290 0.67186481 0.68627451
291 0.67275368 0.68627451
292 0.67364668 0.68627451
293 0.67454397 0.68627451
294 0.67544552 0.68627451
295 0.67635162 0.68627451
296 0.67726211 0.70588235
297 0.67817712 0.70588235
298 0.67909664 0.70588235
299 0.68002080 0.70588235
300 0.68094945 0.72549020
301 0.68188256 0.72549020
302 0.68282028 0.72549020
303 0.68376258 0.72549020
304 0.68470946 0.74509804
305 0.68566120 0.76470588
306 0.68661779 0.76470588
307 0.68757891 0.76470588
308 0.68854470 0.76470588
309 0.68951514 0.76470588
310 0.69049037 0.78431373
311 0.69147036 0.76470588
312 0.69245497 0.76470588
313 0.69344462 0.76470588
314 0.69443945 0.78431373
315 0.69543945 0.76470588
316 0.69644475 0.78431373
317 0.69745534 0.78431373
318 0.69847119 0.78431373
319 0.69949215 0.78431373
320 0.70051835 0.80392157
321 0.70154977 0.78431373
322 0.70258640 0.78431373
323 0.70362822 0.78431373
324 0.70467537 0.78431373
325 0.70572782 0.78431373
326 0.70678557 0.78431373
327 0.70784860 0.80392157
328 0.70891704 0.80392157
329 0.70999073 0.80392157
330 0.71106964 0.80392157
331 0.71215392 0.80392157
332 0.71324369 0.82352941
333 0.71433895 0.80392157
334 0.71543966 0.80392157
335 0.71654598 0.80392157
336 0.71765818 0.82352941
337 0.71877639 0.80392157
338 0.71990046 0.82352941
339 0.72103005 0.80392157
340 0.72216531 0.82352941
341 0.72330591 0.80392157
342 0.72445183 0.82352941
343 0.72560306 0.82352941
344 0.72675974 0.80392157
345 0.72792168 0.82352941
346 0.72908903 0.82352941
347 0.73026192 0.82352941
348 0.73144033 0.82352941
349 0.73262439 0.82352941
350 0.73381394 0.84313725
351 0.73500895 0.82352941
352 0.73620941 0.82352941
353 0.73741530 0.82352941
354 0.73862660 0.80392157
355 0.73984313 0.78431373
356 0.74106474 0.78431373
357 0.74229140 0.78431373
358 0.74352325 0.78431373
359 0.74475995 0.76470588
360 0.74600150 0.78431373
361 0.74724757 0.76470588
362 0.74849799 0.78431373
363 0.74975214 0.76470588
364 0.75100955 0.78431373
365 0.75226989 0.78431373
366 0.75353253 0.78431373
367 0.75479686 0.78431373
368 0.75606255 0.78431373
369 0.75732928 0.76470588
370 0.75859688 0.78431373
371 0.75986518 0.78431373
372 0.76113462 0.78431373
373 0.76240562 0.78431373
374 0.76367877 0.78431373
375 0.76495466 0.78431373
376 0.76623372 0.78431373
377 0.76751639 0.76470588
378 0.76880324 0.76470588
379 0.77009457 0.74509804
380 0.77139096 0.74509804
381 0.77269268 0.74509804
382 0.77399988 0.74509804
383 0.77531268 0.74509804
384 0.77663106 0.76470588
385 0.77795485 0.72549020
386 0.77928403 0.72549020
387 0.78061858 0.72549020
388 0.78195862 0.72549020
389 0.78330400 0.70588235
390 0.78465483 0.70588235
391 0.78601111 0.70588235
392 0.78737264 0.70588235
393 0.78873943 0.70588235
394 0.79011143 0.70588235
395 0.79148864 0.70588235
396 0.79287103 0.70588235
397 0.79425858 0.70588235
398 0.79565111 0.70588235
399 0.79704861 0.68627451
400 0.79845091 0.68627451
401 0.79985812 0.68627451
402 0.80127039 0.68627451
403 0.80268754 0.68627451
404 0.80410954 0.68627451
405 0.80553623 0.66666667
406 0.80696773 0.68627451
407 0.80840357 0.66666667
408 0.80984357 0.66666667
409 0.81128771 0.66666667
410 0.81273613 0.68627451
411 0.81418864 0.68627451
412 0.81564553 0.68627451
413 0.81710693 0.66666667
414 0.81857281 0.68627451
415 0.82004300 0.68627451
416 0.82151747 0.68627451
417 0.82299606 0.68627451
418 0.82447889 0.68627451
419 0.82596579 0.66666667
420 0.82745704 0.66666667
421 0.82895246 0.66666667
422 0.83045202 0.64705882
423 0.83195542 0.64705882
424 0.83346276 0.64705882
425 0.83497388 0.64705882
426 0.83648846 0.64705882
427 0.83800600 0.64705882
428 0.83952635 0.64705882
429 0.84104888 0.62745098
430 0.84257340 0.64705882
431 0.84409959 0.62745098
432 0.84562743 0.62745098
433 0.84715704 0.62745098
434 0.84868901 0.62745098
435 0.85022362 0.62745098
436 0.85176130 0.62745098
437 0.85330262 0.60784314
438 0.85484847 0.62745098
439 0.85639958 0.62745098
440 0.85795699 0.62745098
441 0.85952128 0.60784314
442 0.86109332 0.62745098
443 0.86267371 0.60784314
444 0.86426317 0.60784314
445 0.86586183 0.58823529
446 0.86747042 0.60784314
447 0.86908891 0.60784314
448 0.87071759 0.62745098
449 0.87235628 0.58823529
450 0.87400525 0.58823529
451 0.87566387 0.58823529
452 0.87733242 0.58823529
453 0.87901073 0.58823529
454 0.88069906 0.58823529
455 0.88239725 0.58823529
456 0.88410557 0.58823529
457 0.88582354 0.58823529
458 0.88755113 0.58823529
459 0.88928801 0.58823529
460 0.89103386 0.62745098
461 0.89278789 0.62745098
462 0.89454962 0.64705882
463 0.89631812 0.64705882
464 0.89809275 0.66666667
465 0.89987288 0.66666667
466 0.90165819 0.66666667
467 0.90344773 0.66666667
468 0.90524103 0.68627451
469 0.90703761 0.68627451
470 0.90883698 0.68627451
471 0.91063851 0.68627451
472 0.91244187 0.70588235
473 0.91424659 0.70588235
474 0.91605232 0.72549020
475 0.91785875 0.72549020
476 0.91966598 0.74509804
477 0.92147401 0.74509804
478 0.92328279 0.76470588
479 0.92509200 0.76470588
480 0.92690115 0.78431373
481 0.92870961 0.78431373
482 0.93051676 0.80392157
483 0.93232180 0.82352941
484 0.93412396 0.82352941
485 0.93592244 0.82352941
486 0.93771647 0.84313725
487 0.93950542 0.84313725
488 0.94128879 0.84313725
489 0.94306627 0.84313725
490 0.94483782 0.86274510
491 0.94660296 0.86274510
492 0.94836183 0.86274510
493 0.95011423 0.88235294
494 0.95185999 0.88235294
495 0.95359894 0.88235294
496 0.95533074 0.90196078
497 0.95705506 0.90196078
498 0.95877188 0.90196078
499 0.96048148 0.90196078
500 0.96218412 0.92156863
501 0.96387994 0.92156863
502 0.96556907 0.92156863
503 0.96725161 0.92156863
504 0.96892786 0.94117647
505 0.97059793 0.94117647
506 0.97226196 0.94117647
507 0.97392007 0.94117647
508 0.97557283 0.94117647
509 0.97722067 0.94117647
510 0.97886449 0.94117647
511 0.98050500 0.94117647
512 0.98214294 0.94117647
513 0.98377904 0.92156863
514 0.98541402 0.92156863
515 0.98704833 0.90196078
516 0.98868253 0.90196078
517 0.99031691 0.88235294
518 0.99195143 0.88235294
519 0.99358608 0.86274510
520 0.99522068 0.86274510
521 0.99685535 0.86274510
522 0.99849053 0.88235294
523 1.00012648 0.88235294
524 1.00176364 0.90196078
525 1.00340244 0.92156863
526 1.00504360 0.94117647
527 1.00668741 0.96078431
528 1.00833444 0.98039216
529 1.00998542 0.98039216
530 1.01164094 1.00000000
531 1.01330141 1.00000000
532 1.01496758 0.98039216
533 1.01664017 0.98039216
534 1.01831961 0.98039216
535 1.02000663 0.98039216
536 1.02170150 0.98039216
537 1.02340451 0.96078431
538 1.02511562 0.96078431
539 1.02683496 0.96078431
540 1.02856221 0.96078431
541 1.03029732 0.96078431
542 1.03204014 0.96078431
543 1.03379047 0.96078431
544 1.03554815 0.96078431
545 1.03731344 0.94117647
546 1.03908617 0.94117647
547 1.04086631 0.94117647
548 1.04265383 0.96078431
549 1.04444855 0.98039216
550 1.04625000 1.00000000
551 1.04805799 1.01960784
552 1.04987190 1.03921569
553 1.05169108 1.03921569
554 1.05351460 1.03921569
555 1.05534169 1.01960784
556 1.05717155 1.03921569
557 1.05900325 1.03921569
558 1.06083615 1.03921569
559 1.06266963 1.03921569
560 1.06450320 1.03921569
561 1.06633654 1.03921569
562 1.06816915 1.05882353
563 1.07000086 1.03921569
564 1.07183164 1.05882353
565 1.07366177 1.05882353
566 1.07549137 1.05882353
567 1.07732102 1.05882353
568 1.07915098 1.07843137
569 1.08098169 1.05882353
570 1.08281341 1.05882353
571 1.08464628 1.07843137
572 1.08648027 1.07843137
573 1.08831549 1.07843137
574 1.09015206 1.07843137
575 1.09198997 1.07843137
576 1.09382904 1.07843137
577 1.09566922 1.03921569
578 1.09751050 1.03921569
579 1.09935300 1.03921569
580 1.10119683 1.05882353
581 1.10304198 1.03921569
582 1.10488842 1.05882353
583 1.10673595 1.03921569
584 1.10858441 1.05882353
585 1.11043377 1.03921569
586 1.11228415 1.03921569
587 1.11413536 1.03921569
588 1.11598754 1.03921569
589 1.11784110 1.03921569
590 1.11969617 1.03921569
591 1.12155287 1.03921569
592 1.12341133 1.03921569
593 1.12527181 1.03921569
594 1.12713414 1.05882353
595 1.12899799 1.05882353
596 1.13086333 1.05882353
597 1.13273012 1.03921569
598 1.13459835 1.03921569
599 1.13646798 1.00000000
600 1.13833898 1.00000000
601 1.14021132 0.98039216
602 1.14208498 0.98039216
603 1.14395993 0.98039216
604 1.14583613 0.98039216
605 1.14771356 0.98039216
606 1.14959204 0.98039216
607 1.15147169 0.98039216
608 1.15335233 0.98039216
609 1.15523393 0.98039216
610 1.15711632 0.98039216
611 1.15899975 0.98039216
612 1.16088406 0.98039216
613 1.16276922 0.98039216
614 1.16465504 0.98039216
615 1.16654120 1.00000000
616 1.16842720 1.00000000
617 1.17031258 1.00000000
618 1.17219684 1.00000000
619 1.17407950 1.00000000
620 1.17595993 1.00000000
621 1.17783749 0.96078431
622 1.17971156 0.96078431
623 1.18158165 0.94117647
624 1.18344727 0.94117647
625 1.18530871 0.94117647
626 1.18716592 0.94117647
627 1.18901919 0.92156863
628 1.19086879 0.92156863
629 1.19271530 0.90196078
630 1.19455913 0.92156863
631 1.19640057 0.92156863
632 1.19823989 0.94117647
633 1.20007767 0.96078431
634 1.20191417 0.98039216
635 1.20374952 1.00000000
636 1.20558370 1.01960784
637 1.20741698 1.03921569
638 1.20924902 1.05882353
639 1.21107980 1.07843137
640 1.21290929 1.07843137
641 1.21473761 1.03921569
642 1.21656459 1.05882353
643 1.21839034 1.03921569
644 1.22021470 1.03921569
645 1.22203777 1.05882353
646 1.22385954 1.05882353
647 1.22567997 1.07843137
648 1.22749903 1.07843137
649 1.22931671 1.07843137
650 1.23113281 1.07843137
651 1.23294747 1.07843137
652 1.23476050 1.07843137
653 1.23657172 1.09803922
654 1.23838126 1.09803922
655 1.24018939 1.09803922
656 1.24199594 1.13725490
657 1.24380117 1.13725490
658 1.24560521 1.17647059
659 1.24740788 1.19607843
660 1.24920886 1.23529412
661 1.25100796 1.23529412
662 1.25280500 1.25490196
663 1.25459996 1.25490196
664 1.25639265 1.25490196
665 1.25818290 1.23529412
666 1.25997083 1.23529412
667 1.26175642 1.23529412
668 1.26353963 1.23529412
669 1.26532045 1.25490196
670 1.26709898 1.25490196
671 1.26887506 1.27450980
672 1.27064866 1.29411765
673 1.27241974 1.29411765
674 1.27418829 1.31372549
675 1.27595412 1.31372549
676 1.27771721 1.31372549
677 1.27947752 1.31372549
678 1.28123519 1.33333333
679 1.28299004 1.31372549
680 1.28474203 1.31372549
681 1.28649114 1.31372549
682 1.28823720 1.33333333
683 1.28997987 1.33333333
684 1.29171897 1.33333333
685 1.29345448 1.31372549
686 1.29518623 1.31372549
687 1.29691417 1.29411765
688 1.29863830 1.29411765
689 1.30035888 1.31372549
690 1.30207588 1.33333333
691 1.30378898 1.35294118
692 1.30549830 1.37254902
693 1.30720382 1.39215686
694 1.30890536 1.39215686
695 1.31060289 1.41176471
696 1.31229654 1.43137255
697 1.31398613 1.43137255
698 1.31567148 1.43137255
699 1.31735256 1.43137255
700 1.31902951 1.45098039
701 1.32070215 1.45098039
702 1.32237029 1.45098039
703 1.32403376 1.49019608
704 1.32569254 1.50980392
705 1.32734629 1.49019608
706 1.32899500 1.50980392
707 1.33063864 1.50980392
708 1.33227732 1.52941176
709 1.33391103 1.52941176
710 1.33553990 1.52941176
711 1.33716405 1.52941176
712 1.33878345 1.54901961
713 1.34039823 1.54901961
714 1.34200851 1.56862745
715 1.34361413 1.56862745
716 1.34521520 1.56862745
717 1.34681171 1.56862745
718 1.34840362 1.58823529
719 1.34999077 1.58823529
720 1.35157297 1.60784314
721 1.35315021 1.58823529
722 1.35472260 1.60784314
723 1.35628967 1.60784314
724 1.35785140 1.62745098
725 1.35940746 1.60784314
726 1.36095798 1.62745098
727 1.36250278 1.64705882
728 1.36404169 1.64705882
729 1.36557468 1.64705882
730 1.36710173 1.66666667
731 1.36862297 1.66666667
732 1.37013822 1.66666667
733 1.37164762 1.64705882
734 1.37315113 1.66666667
735 1.37464858 1.66666667
736 1.37614026 1.66666667
737 1.37762613 1.66666667
738 1.37910604 1.68627451
739 1.38058009 1.66666667
740 1.38204828 1.68627451
741 1.38351042 1.66666667
742 1.38496635 1.68627451
743 1.38641588 1.68627451
744 1.38785916 1.68627451
745 1.38929600 1.68627451
746 1.39072623 1.70588235
747 1.39214983 1.68627451
748 1.39356663 1.70588235
749 1.39497645 1.70588235
750 1.39637912 1.70588235
751 1.39777447 1.70588235
752 1.39916248 1.70588235
753 1.40054312 1.70588235
754 1.40191638 1.68627451
755 1.40328207 1.66666667
756 1.40464019 1.66666667
757 1.40599055 1.64705882
758 1.40733299 1.62745098
759 1.40866749 1.58823529
760 1.40999387 1.56862745
761 1.41131181 1.52941176
762 1.41262129 1.49019608
763 1.41392214 1.41176471
764 1.41521419 1.37254902
