# Blue curve: LED brightness = 5, Integration time = 49
# Red curve: LED brightness = 5, Integration time = 50 (if applicable)
# Channel, Intensity (blue line) [V], Intensity (red line, if applicable) [V]
0 0.32393950 0.21568627
1 0.32393950 0.19607843
2 0.32394131 0.21568627
3 0.32394477 0.21568627
4 0.32394989 0.21568627
5 0.32395682 0.21568627
6 0.32396541 0.21568627
7 0.32397580 0.21568627
8 0.32398800 0.23529412
9 0.32400201 0.21568627
10 0.32401782 0.23529412
11 0.32403544 0.23529412
12 0.32405502 0.23529412
13 0.32407656 0.23529412
14 0.32410005 0.25490196
15 0.32412550 0.25490196
16 0.32415291 0.25490196
17 0.32418227 0.25490196
18 0.32421359 0.27450980
19 0.32424686 0.25490196
20 0.32428194 0.27450980
21 0.32431897 0.25490196
22 0.32435795 0.25490196
23 0.32439889 0.25490196
24 0.32444177 0.25490196
25 0.32448646 0.25490196
26 0.32453310 0.25490196
27 0.32458154 0.25490196
28 0.32463192 0.25490196
29 0.32468411 0.25490196
30 0.32473809 0.25490196
31 0.32479371 0.25490196
32 0.32485128 0.27450980
33 0.32491065 0.25490196
34 0.32497195 0.27450980
35 0.32503505 0.27450980
36 0.32509995 0.27450980
37 0.32516663 0.27450980
38 0.32523510 0.29411765
39 0.32530521 0.29411765
40 0.32537695 0.29411765
41 0.32545033 0.29411765
42 0.32552519 0.29411765
43 0.32560168 0.29411765
44 0.32567965 0.29411765
45 0.32575925 0.29411765
46 0.32584048 0.31372549
47 0.32592319 0.29411765
48 0.32600737 0.29411765
49 0.32609303 0.29411765
50 0.32618046 0.29411765
51 0.32626936 0.29411765
52 0.32635973 0.29411765
53 0.32645142 0.29411765
54 0.32654457 0.29411765
55 0.32663920 0.29411765
56 0.32673528 0.29411765
57 0.32683267 0.29411765
58 0.32693138 0.29411765
59 0.32703139 0.29411765
60 0.32713271 0.29411765
61 0.32723519 0.29411765
62 0.32733866 0.29411765
63 0.32744329 0.29411765
64 0.32754891 0.33333333
65 0.32765553 0.29411765
66 0.32776315 0.31372549
67 0.32787176 0.31372549
68 0.32798136 0.31372549
69 0.32809195 0.31372549
70 0.32820367 0.31372549
71 0.32831639 0.31372549
72 0.32843009 0.31372549
73 0.32854477 0.31372549
74 0.32866043 0.31372549
75 0.32877707 0.31372549
76 0.32889469 0.31372549
77 0.32901344 0.31372549
78 0.32913316 0.31372549
79 0.32925370 0.31372549
80 0.32937506 0.33333333
81 0.32949739 0.31372549
82 0.32962068 0.33333333
83 0.32974479 0.33333333
84 0.32986986 0.33333333
85 0.32999589 0.31372549
86 0.33012287 0.33333333
87 0.33025082 0.31372549
88 0.33037987 0.31372549
89 0.33050988 0.31372549
90 0.33064098 0.31372549
91 0.33077319 0.31372549
92 0.33090649 0.31372549
93 0.33104089 0.31372549
94 0.33117638 0.31372549
95 0.33131297 0.31372549
96 0.33145064 0.31372549
97 0.33158940 0.31372549
98 0.33172925 0.31372549
99 0.33187018 0.31372549
100 0.33201219 0.31372549
101 0.33215528 0.31372549
102 0.33229944 0.31372549
103 0.33244468 0.31372549
104 0.33259099 0.31372549
105 0.33273807 0.31372549
106 0.33288607 0.31372549
107 0.33303483 0.31372549
108 0.33318450 0.31372549
109 0.33333492 0.31372549
110 0.33348611 0.31372549
111 0.33363805 0.29411765
112 0.33379074 0.31372549
113 0.33394417 0.29411765
114 0.33409851 0.31372549
115 0.33425359 0.31372549
116 0.33440926 0.31372549
117 0.33456567 0.29411765
118 0.33472266 0.31372549
119 0.33488024 0.29411765
120 0.33503855 0.31372549
121 0.33519744 0.29411765
122 0.33535706 0.31372549
123 0.33551740 0.31372549
124 0.33567846 0.31372549
125 0.33584025 0.29411765
126 0.33600275 0.31372549
127 0.33616596 0.31372549
128 0.33632974 0.33333333
129 0.33649423 0.31372549
130 0.33665942 0.31372549
131 0.33682517 0.31372549
132 0.33699162 0.31372549
133 0.33715876 0.29411765
134 0.33732661 0.31372549
135 0.33749515 0.29411765
136 0.33766438 0.29411765
137 0.33783430 0.29411765
138 0.33800491 0.29411765
139 0.33817620 0.29411765
140 0.33834817 0.29411765
141 0.33852082 0.29411765
142 0.33869415 0.29411765
143 0.33886830 0.27450980
144 0.33904327 0.29411765
145 0.33921907 0.27450980
146 0.33939568 0.29411765
147 0.33957295 0.27450980
148 0.33975088 0.29411765
149 0.33992946 0.29411765
150 0.34010856 0.29411765
151 0.34028815 0.29411765
152 0.34046824 0.29411765
153 0.34064882 0.29411765
154 0.34083005 0.31372549
155 0.34101191 0.29411765
156 0.34119442 0.29411765
157 0.34137756 0.29411765
158 0.34156133 0.29411765
159 0.34174573 0.29411765
160 0.34193090 0.29411765
161 0.34211670 0.29411765
162 0.34230313 0.29411765
163 0.34249016 0.29411765
164 0.34267767 0.29411765
165 0.34286578 0.29411765
166 0.34305450 0.29411765
167 0.34324398 0.29411765
168 0.34343422 0.29411765
169 0.34362520 0.29411765
170 0.34381694 0.29411765
171 0.34400927 0.31372549
172 0.34420204 0.31372549
173 0.34439539 0.29411765
174 0.34458919 0.31372549
175 0.34478356 0.29411765
176 0.34497836 0.31372549
177 0.34517359 0.29411765
178 0.34536939 0.31372549
179 0.34556561 0.29411765
180 0.34576224 0.31372549
181 0.34595929 0.29411765
182 0.34615675 0.31372549
183 0.34635462 0.29411765
184 0.34655289 0.31372549
185 0.34675125 0.29411765
186 0.34695002 0.31372549
187 0.34714918 0.31372549
188 0.34734873 0.31372549
189 0.34754868 0.31372549
190 0.34774900 0.31372549
191 0.34794971 0.31372549
192 0.34815065 0.31372549
193 0.34835181 0.31372549
194 0.34855304 0.33333333
195 0.34875435 0.33333333
196 0.34895586 0.33333333
197 0.34915744 0.33333333
198 0.34935923 0.33333333
199 0.34956107 0.31372549
200 0.34976312 0.33333333
201 0.34996521 0.33333333
202 0.35016735 0.33333333
203 0.35036954 0.33333333
204 0.35057161 0.33333333
205 0.35077372 0.33333333
206 0.35097571 0.33333333
207 0.35117758 0.33333333
208 0.35137932 0.33333333
209 0.35158125 0.33333333
210 0.35178319 0.33333333
211 0.35198515 0.33333333
212 0.35218697 0.35294118
213 0.35238866 0.33333333
214 0.35259020 0.35294118
215 0.35279159 0.35294118
216 0.35299269 0.35294118
217 0.35319348 0.35294118
218 0.35339397 0.35294118
219 0.35359415 0.35294118
220 0.35379386 0.37254902
221 0.35399326 0.35294118
222 0.35419219 0.35294118
223 0.35439079 0.35294118
224 0.35458892 0.35294118
225 0.35478672 0.35294118
226 0.35498405 0.35294118
227 0.35518103 0.35294118
228 0.35537753 0.35294118
229 0.35557369 0.35294118
230 0.35576935 0.35294118
231 0.35596452 0.35294118
232 0.35615919 0.35294118
233 0.35635350 0.35294118
234 0.35654746 0.35294118
235 0.35674122 0.35294118
236 0.35693461 0.35294118
237 0.35712764 0.35294118
238 0.35732030 0.37254902
239 0.35751244 0.37254902
240 0.35770406 0.37254902
241 0.35789515 0.37254902
242 0.35808586 0.37254902
243 0.35827603 0.37254902
244 0.35846568 0.37254902
245 0.35865478 0.37254902
246 0.35884334 0.37254902
247 0.35903136 0.37254902
248 0.35921883 0.37254902
249 0.35940574 0.37254902
250 0.35959211 0.37254902
251 0.35977792 0.37254902
252 0.35996332 0.37254902
253 0.36014831 0.37254902
254 0.36033289 0.39215686
255 0.36051705 0.39215686
256 0.36070064 0.41176471
257 0.36088381 0.39215686
258 0.36106655 0.39215686
259 0.36124872 0.39215686
260 0.36143030 0.39215686
261 0.36161130 0.39215686
262 0.36179171 0.39215686
263 0.36197153 0.39215686
264 0.36215076 0.41176471
265 0.36232925 0.39215686
266 0.36250698 0.39215686
267 0.36268396 0.39215686
268 0.36286018 0.39215686
269 0.36303580 0.39215686
270 0.36321066 0.39215686
271 0.36338491 0.39215686
272 0.36355839 0.41176471
273 0.36373155 0.39215686
274 0.36390425 0.41176471
275 0.36407632 0.41176471
276 0.36424792 0.41176471
277 0.36441905 0.41176471
278 0.36458969 0.41176471
279 0.36475985 0.41176471
280 0.36492953 0.41176471
281 0.36509872 0.43137255
282 0.36526742 0.43137255
283 0.36543548 0.43137255
284 0.36560289 0.43137255
285 0.36576965 0.43137255
286 0.36593561 0.43137255
287 0.36610091 0.43137255
288 0.36626541 0.43137255
289 0.36642925 0.43137255
290 0.36659227 0.43137255
291 0.36675463 0.43137255
292 0.36691633 0.43137255
293 0.36707735 0.43137255
294 0.36723771 0.43137255
295 0.36739739 0.43137255
296 0.36755639 0.43137255
297 0.36771456 0.43137255
298 0.36787221 0.43137255
299 0.36802917 0.43137255
300 0.36818559 0.45098039
301 0.36834133 0.43137255
302 0.36849637 0.45098039
303 0.36865087 0.43137255
304 0.36880468 0.45098039
305 0.36895779 0.45098039
306 0.36911050 0.45098039
307 0.36926251 0.45098039
308 0.36941396 0.45098039
309 0.36956470 0.45098039
310 0.36971489 0.45098039
311 0.36986437 0.45098039
312 0.37001328 0.45098039
313 0.37016162 0.45098039
314 0.37030940 0.45098039
315 0.37045661 0.45098039
316 0.37060324 0.45098039
317 0.37074915 0.45098039
318 0.37089448 0.45098039
319 0.37103939 0.45098039
320 0.37118371 0.47058824
321 0.37132760 0.45098039
322 0.37147090 0.45098039
323 0.37161377 0.45098039
324 0.37175620 0.45098039
325 0.37189818 0.43137255
326 0.37203958 0.47058824
327 0.37218022 0.45098039
328 0.37232027 0.47058824
329 0.37245956 0.45098039
330 0.37259810 0.47058824
331 0.37273588 0.45098039
332 0.37287305 0.45098039
333 0.37300946 0.45098039
334 0.37314511 0.45098039
335 0.37328015 0.45098039
336 0.37341442 0.47058824
337 0.37354807 0.45098039
338 0.37368094 0.47058824
339 0.37381305 0.45098039
340 0.37394438 0.47058824
341 0.37407493 0.47058824
342 0.37420486 0.47058824
343 0.37433415 0.47058824
344 0.37446281 0.45098039
345 0.37459084 0.47058824
346 0.37471823 0.47058824
347 0.37484498 0.47058824
348 0.37497110 0.47058824
349 0.37509657 0.47058824
350 0.37522139 0.47058824
351 0.37534557 0.47058824
352 0.37546926 0.47058824
353 0.37559244 0.47058824
354 0.37571513 0.47058824
355 0.37583731 0.45098039
356 0.37595899 0.47058824
357 0.37608016 0.45098039
358 0.37620083 0.47058824
359 0.37632098 0.45098039
360 0.37644062 0.47058824
361 0.37655960 0.45098039
362 0.37667776 0.47058824
363 0.37679510 0.47058824
364 0.37691162 0.47058824
365 0.37702716 0.45098039
366 0.37714173 0.47058824
367 0.37725517 0.47058824
368 0.37736748 0.47058824
369 0.37747865 0.47058824
370 0.37758885 0.47058824
371 0.37769805 0.47058824
372 0.37780628 0.47058824
373 0.37791366 0.47058824
374 0.37802036 0.47058824
375 0.37812651 0.47058824
376 0.37823228 0.47058824
377 0.37833766 0.47058824
378 0.37844280 0.47058824
379 0.37854770 0.47058824
380 0.37865251 0.47058824
381 0.37875722 0.45098039
382 0.37886198 0.47058824
383 0.37896680 0.47058824
384 0.37907183 0.47058824
385 0.37917690 0.45098039
386 0.37928218 0.45098039
387 0.37938780 0.45098039
388 0.37949362 0.45098039
389 0.37959979 0.45098039
390 0.37970630 0.45098039
391 0.37981301 0.45098039
392 0.37991990 0.47058824
393 0.38002699 0.45098039
394 0.38013410 0.45098039
395 0.38024141 0.45098039
396 0.38034905 0.45098039
397 0.38045687 0.45098039
398 0.38056502 0.45098039
399 0.38067351 0.43137255
400 0.38078232 0.43137255
401 0.38089146 0.43137255
402 0.38100092 0.43137255
403 0.38111071 0.43137255
404 0.38122112 0.43137255
405 0.38133215 0.43137255
406 0.38144380 0.43137255
407 0.38155607 0.43137255
408 0.38166896 0.43137255
409 0.38178262 0.43137255
410 0.38189719 0.43137255
411 0.38201268 0.43137255
412 0.38212907 0.43137255
413 0.38224623 0.43137255
414 0.38236430 0.45098039
415 0.38248297 0.43137255
416 0.38260254 0.45098039
417 0.38272287 0.43137255
418 0.38284410 0.43137255
419 0.38296623 0.43137255
420 0.38308925 0.43137255
421 0.38321318 0.41176471
422 0.38333814 0.43137255
423 0.38346415 0.41176471
424 0.38359136 0.43137255
425 0.38371960 0.41176471
426 0.38384903 0.41176471
427 0.38397965 0.41176471
428 0.38411160 0.41176471
429 0.38424504 0.41176471
430 0.38438026 0.41176471
431 0.38451741 0.41176471
432 0.38465696 0.41176471
433 0.38479888 0.41176471
434 0.38494349 0.41176471
435 0.38509078 0.39215686
436 0.38524075 0.39215686
437 0.38539325 0.41176471
438 0.38554857 0.41176471
439 0.38570702 0.39215686
440 0.38586889 0.41176471
441 0.38603418 0.39215686
442 0.38620320 0.39215686
443 0.38637609 0.39215686
444 0.38655300 0.39215686
445 0.38673408 0.37254902
446 0.38691948 0.39215686
447 0.38710919 0.39215686
448 0.38730336 0.41176471
449 0.38750214 0.37254902
450 0.38770553 0.37254902
451 0.38791353 0.37254902
452 0.38812627 0.37254902
453 0.38834377 0.35294118
454 0.38856631 0.35294118
455 0.38879360 0.35294118
456 0.38902592 0.35294118
457 0.38926314 0.35294118
458 0.38950508 0.35294118
459 0.38975160 0.35294118
460 0.39000255 0.35294118
461 0.39025775 0.35294118
462 0.39051723 0.35294118
463 0.39078050 0.35294118
464 0.39104743 0.35294118
465 0.39131815 0.33333333
466 0.39159312 0.35294118
467 0.39187203 0.33333333
468 0.39215488 0.35294118
469 0.39244135 0.33333333
470 0.39273145 0.33333333
471 0.39302516 0.33333333
472 0.39332250 0.33333333
473 0.39362298 0.33333333
474 0.39392678 0.33333333
475 0.39423432 0.31372549
476 0.39454577 0.31372549
477 0.39486080 0.31372549
478 0.39517957 0.31372549
479 0.39550193 0.31372549
480 0.39582786 0.31372549
481 0.39615676 0.31372549
482 0.39648817 0.33333333
483 0.39682148 0.33333333
484 0.39715683 0.35294118
485 0.39749377 0.33333333
486 0.39783213 0.35294118
487 0.39817147 0.33333333
488 0.39851193 0.35294118
489 0.39885319 0.35294118
490 0.39919526 0.35294118
491 0.39953797 0.35294118
492 0.39988103 0.35294118
493 0.40022411 0.35294118
494 0.40056692 0.35294118
495 0.40090900 0.35294118
496 0.40124988 0.35294118
497 0.40158927 0.35294118
498 0.40192714 0.35294118
499 0.40226381 0.35294118
500 0.40259987 0.35294118
501 0.40293561 0.35294118
502 0.40327134 0.35294118
503 0.40360736 0.35294118
504 0.40394395 0.35294118
505 0.40428127 0.35294118
506 0.40461930 0.35294118
507 0.40495836 0.35294118
508 0.40529828 0.35294118
509 0.40563950 0.33333333
510 0.40598218 0.33333333
511 0.40632661 0.33333333
512 0.40667279 0.35294118
513 0.40702102 0.33333333
514 0.40737203 0.33333333
515 0.40772614 0.33333333
516 0.40808349 0.33333333
517 0.40844407 0.33333333
518 0.40880802 0.33333333
519 0.40917550 0.33333333
520 0.40954650 0.33333333
521 0.40992055 0.33333333
522 0.41029751 0.35294118
523 0.41067781 0.33333333
524 0.41106146 0.35294118
525 0.41144844 0.35294118
526 0.41183891 0.37254902
527 0.41223300 0.35294118
528 0.41263087 0.37254902
529 0.41303265 0.37254902
530 0.41343819 0.37254902
531 0.41384704 0.37254902
532 0.41425948 0.37254902
533 0.41467581 0.37254902
534 0.41509618 0.37254902
535 0.41552058 0.37254902
536 0.41594916 0.37254902
537 0.41638205 0.37254902
538 0.41681941 0.37254902
539 0.41726138 0.37254902
540 0.41770765 0.37254902
541 0.41815852 0.37254902
542 0.41861367 0.37254902
543 0.41907310 0.37254902
544 0.41953665 0.37254902
545 0.42000431 0.37254902
546 0.42047608 0.37254902
547 0.42095164 0.37254902
548 0.42143100 0.39215686
549 0.42191413 0.37254902
550 0.42240089 0.39215686
551 0.42289112 0.39215686
552 0.42338465 0.39215686
553 0.42388133 0.39215686
554 0.42438099 0.39215686
555 0.42488349 0.39215686
556 0.42538865 0.41176471
557 0.42589618 0.39215686
558 0.42640575 0.41176471
559 0.42691752 0.39215686
560 0.42743147 0.41176471
561 0.42794760 0.41176471
562 0.42846575 0.41176471
563 0.42898576 0.39215686
564 0.42950732 0.41176471
565 0.43003026 0.39215686
566 0.43055444 0.41176471
567 0.43107954 0.39215686
568 0.43160554 0.41176471
569 0.43213230 0.39215686
570 0.43265981 0.41176471
571 0.43318805 0.41176471
572 0.43371687 0.41176471
573 0.43424625 0.39215686
574 0.43477620 0.41176471
575 0.43530655 0.39215686
576 0.43583744 0.41176471
577 0.43636871 0.39215686
578 0.43690037 0.39215686
579 0.43743239 0.39215686
580 0.43796477 0.39215686
581 0.43849750 0.39215686
582 0.43903073 0.39215686
583 0.43956444 0.37254902
584 0.44009879 0.39215686
585 0.44063360 0.37254902
586 0.44116903 0.39215686
587 0.44170476 0.39215686
588 0.44224094 0.39215686
589 0.44277755 0.39215686
590 0.44331459 0.39215686
591 0.44385205 0.37254902
592 0.44438993 0.39215686
593 0.44492820 0.39215686
594 0.44546688 0.39215686
595 0.44600579 0.39215686
596 0.44654478 0.39215686
597 0.44708383 0.39215686
598 0.44762295 0.39215686
599 0.44816211 0.37254902
600 0.44870133 0.37254902
601 0.44924042 0.37254902
602 0.44977939 0.37254902
603 0.45031823 0.37254902
604 0.45085692 0.37254902
605 0.45139562 0.37254902
606 0.45193416 0.37254902
607 0.45247254 0.37254902
608 0.45301074 0.37254902
609 0.45354846 0.37254902
610 0.45408583 0.37254902
611 0.45462285 0.37254902
612 0.45515952 0.37254902
613 0.45569582 0.37254902
614 0.45623159 0.37254902
615 0.45676683 0.37254902
616 0.45730137 0.37254902
617 0.45783521 0.37254902
618 0.45836804 0.37254902
619 0.45890000 0.35294118
620 0.45943093 0.35294118
621 0.45996067 0.35294118
622 0.46048906 0.35294118
623 0.46101595 0.35294118
624 0.46154117 0.35294118
625 0.46206486 0.35294118
626 0.46258672 0.35294118
627 0.46310674 0.35294118
628 0.46362506 0.35294118
629 0.46414168 0.35294118
630 0.46465673 0.35294118
631 0.46517020 0.35294118
632 0.46568210 0.35294118
633 0.46619257 0.35294118
634 0.46670158 0.37254902
635 0.46720930 0.35294118
636 0.46771571 0.37254902
637 0.46822065 0.37254902
638 0.46872412 0.37254902
639 0.46922610 0.37254902
640 0.46972659 0.39215686
641 0.47022559 0.37254902
642 0.47072322 0.35294118
643 0.47121950 0.35294118
644 0.47171425 0.35294118
645 0.47220748 0.35294118
646 0.47269917 0.35294118
647 0.47318931 0.35294118
648 0.47367790 0.35294118
649 0.47416493 0.35294118
650 0.47465040 0.37254902
651 0.47513429 0.37254902
652 0.47561660 0.37254902
653 0.47609731 0.37254902
654 0.47657644 0.37254902
655 0.47705395 0.35294118
656 0.47752986 0.35294118
657 0.47800415 0.35294118
658 0.47847696 0.37254902
659 0.47894814 0.35294118
660 0.47941768 0.37254902
661 0.47988556 0.35294118
662 0.48035165 0.35294118
663 0.48081607 0.33333333
664 0.48127867 0.33333333
665 0.48173944 0.33333333
666 0.48219838 0.33333333
667 0.48265562 0.33333333
668 0.48311102 0.33333333
669 0.48356471 0.33333333
670 0.48401669 0.33333333
671 0.48446695 0.35294118
672 0.48491549 0.35294118
673 0.48536229 0.33333333
674 0.48580751 0.35294118
675 0.48625097 0.35294118
676 0.48669284 0.35294118
677 0.48713309 0.35294118
678 0.48757158 0.35294118
679 0.48800845 0.33333333
680 0.48844368 0.33333333
681 0.48887729 0.35294118
682 0.48930924 0.35294118
683 0.48973955 0.35294118
684 0.49016805 0.35294118
685 0.49059489 0.33333333
686 0.49102006 0.33333333
687 0.49144356 0.33333333
688 0.49186537 0.33333333
689 0.49228579 0.33333333
690 0.49270452 0.33333333
691 0.49312155 0.33333333
692 0.49353687 0.33333333
693 0.49395048 0.33333333
694 0.49436236 0.33333333
695 0.49477267 0.33333333
696 0.49518124 0.33333333
697 0.49558823 0.33333333
698 0.49599332 0.33333333
699 0.49639680 0.33333333
700 0.49679868 0.33333333
701 0.49719895 0.33333333
702 0.49759759 0.31372549
703 0.49799461 0.35294118
704 0.49839000 0.37254902
705 0.49878375 0.35294118
706 0.49917586 0.35294118
707 0.49956631 0.33333333
708 0.49995511 0.35294118
709 0.50034225 0.33333333
710 0.50072771 0.35294118
711 0.50111166 0.33333333
712 0.50149392 0.35294118
713 0.50187465 0.33333333
714 0.50225384 0.35294118
715 0.50263148 0.33333333
716 0.50300757 0.35294118
717 0.50338210 0.33333333
718 0.50375507 0.35294118
719 0.50412647 0.33333333
720 0.50449614 0.35294118
721 0.50486438 0.33333333
722 0.50523118 0.35294118
723 0.50559625 0.33333333
724 0.50595956 0.35294118
725 0.50632111 0.35294118
726 0.50668106 0.35294118
727 0.50703924 0.35294118
728 0.50739565 0.33333333
729 0.50775029 0.35294118
730 0.50810314 0.35294118
731 0.50845435 0.33333333
732 0.50880392 0.35294118
733 0.50915184 0.35294118
734 0.50949811 0.35294118
735 0.50984272 0.35294118
736 0.51018567 0.35294118
737 0.51052710 0.35294118
738 0.51086701 0.35294118
739 0.51120539 0.35294118
740 0.51154239 0.35294118
741 0.51187784 0.35294118
742 0.51221191 0.37254902
743 0.51254458 0.37254902
744 0.51287569 0.37254902
745 0.51320525 0.37254902
746 0.51353324 0.37254902
747 0.51385966 0.39215686
748 0.51418450 0.39215686
749 0.51450777 0.39215686
750 0.51482945 0.39215686
751 0.51514954 0.39215686
752 0.51546804 0.39215686
753 0.51578509 0.39215686
754 0.51610054 0.39215686
755 0.51641422 0.39215686
756 0.51672630 0.39215686
757 0.51703690 0.39215686
758 0.51734588 0.39215686
759 0.51765324 0.37254902
760 0.51795911 0.37254902
761 0.51826334 0.37254902
762 0.51856593 0.35294118
763 0.51886673 0.33333333
764 0.51916587 0.33333333
